pc_time_ms,ecg,bpm,leadOff,ts
123,1972,63,0,32919
125,2295,63,0,32929
125,2147,63,0,32939
126,2150,63,0,32949
126,2255,63,0,32959
127,2171,63,0,32969
127,2223,63,0,32979
128,2128,63,0,32989
128,2233,63,0,32999
336,2242,63,0,33009
337,2238,63,0,33019
337,2207,63,0,33029
338,2256,63,0,33039
339,2277,63,0,33049
340,2352,63,0,33059
340,2480,63,0,33069
340,2443,63,0,33079
341,2453,63,0,33089
341,2523,63,0,33099
342,2546,63,0,33109
342,2674,63,0,33119
541,2924,63,0,33129
542,2799,63,0,33139
542,2850,63,0,33149
542,2855,63,0,33159
542,2859,63,0,33169
543,2879,63,0,33179
543,2800,63,0,33189
543,2641,63,0,33199
544,2623,63,0,33209
544,2875,63,0,33219
544,3965,75,0,33229
545,4095,75,0,33239
545,3502,75,0,33249
545,2030,75,0,33259
545,2512,75,0,33269
546,2592,75,0,33279
546,2336,75,0,33289
546,2359,75,0,33299
546,2350,75,0,33309
546,2263,75,0,33319
833,2367,75,0,33329
833,2331,75,0,33339
834,2302,75,0,33349
834,2241,75,0,33359
834,2226,75,0,33369
834,2133,75,0,33379
834,2100,75,0,33389
835,2044,75,0,33399
835,1941,75,0,33409
835,1963,75,0,33419
835,1856,75,0,33429
835,1898,75,0,33439
836,1778,75,0,33449
836,1798,75,0,33459
836,1742,75,0,33469
836,1751,75,0,33479
836,1678,75,0,33489
837,1712,75,0,33499
837,1616,75,0,33509
837,1483,75,0,33519
837,1387,75,0,33529
907,1447,75,0,33539
907,1356,75,0,33549
907,1257,75,0,33559
907,1247,75,0,33569
908,1223,75,0,33579
908,1134,75,0,33589
908,1162,75,0,33599
908,1012,75,0,33609
909,958,75,0,33619
909,932,75,0,33629
909,969,75,0,33639
910,929,75,0,33649
910,858,75,0,33659
910,884,75,0,33669
910,887,75,0,33679
911,814,75,0,33689
911,855,75,0,33699
911,822,75,0,33709
911,839,75,0,33719
911,784,75,0,33729
912,862,75,0,33739
912,797,75,0,33749
912,771,75,0,33759
912,843,75,0,33769
913,784,75,0,33779
957,737,75,0,33789
958,855,75,0,33799
958,964,75,0,33809
958,881,75,0,33819
959,930,75,0,33829
959,955,75,0,33839
1156,912,75,0,33849
1157,926,75,0,33859
1158,902,75,0,33869
1158,976,75,0,33879
1159,934,75,0,33889
1159,913,75,0,33899
1160,934,75,0,33909
1160,880,75,0,33919
1160,892,75,0,33929
1161,829,75,0,33939
1263,1113,75,0,33949
1263,1008,75,0,33959
1263,884,75,0,33969
1263,1018,75,0,33979
1264,907,75,0,33989
1264,991,75,0,33999
1264,1057,75,0,34009
1264,763,75,0,34019
1264,815,75,0,34029
1265,873,75,0,34039
1265,850,75,0,34049
1265,768,75,0,34059
1265,1041,75,0,34069
1265,1674,75,0,34079
1265,2501,75,0,34089
1266,1653,75,0,34099
1266,337,75,0,34109
1266,960,75,0,34119
1266,901,75,0,34129
1266,922,75,0,34139
1467,1063,75,0,34149
1468,1023,75,0,34159
1468,1098,75,0,34169
1468,1132,75,0,34179
1468,1088,75,0,34189
1468,1088,75,0,34199
1469,1234,75,0,34209
1469,1046,75,0,34219
1469,1074,75,0,34229
1469,1121,75,0,34239
1470,1056,75,0,34249
1470,1146,75,0,34259
1470,1078,75,0,34269
1470,1181,75,0,34279
1470,1233,75,0,34289
1471,1233,75,0,34299
1471,1346,75,0,34309
1471,1365,75,0,34319
1471,1347,75,0,34329
1471,1467,75,0,34339
1472,1520,75,0,34349
1672,1636,75,0,34359
1672,1487,75,0,34369
1672,1458,75,0,34379
1673,1414,75,0,34389
1673,1383,75,0,34399
1673,1350,75,0,34409
1673,1287,75,0,34419
1674,1181,75,0,34429
1674,1233,75,0,34439
1674,1200,75,0,34449
1675,1241,75,0,34459
1675,1220,75,0,34469
1675,1226,75,0,34479
1675,1350,75,0,34489
1675,1305,75,0,34499
1676,1274,75,0,34509
1676,1394,75,0,34519
1676,1310,75,0,34529
1676,1312,75,0,34539
1676,1334,75,0,34549
1877,1463,75,0,34559
1877,1481,75,0,34569
1878,1454,75,0,34579
1878,1527,75,0,34589
1878,1443,75,0,34599
1878,1503,75,0,34609
1878,1492,75,0,34619
1879,1367,75,0,34629
1879,1370,75,0,34639
1879,1376,75,0,34649
1879,1326,75,0,34659
1879,1354,75,0,34669
1879,1376,75,0,34679
1879,1373,75,0,34689
1880,1407,75,0,34699
1880,1375,75,0,34709
1880,1397,75,0,34719
1880,1380,75,0,34729
1880,1404,75,0,34739
1880,1454,75,0,34749
1880,1487,75,0,34759
2179,1582,75,0,34769
2180,1615,75,0,34779
2181,1629,75,0,34789
2181,1667,75,0,34799
2181,1717,75,0,34809
2181,1563,75,0,34819
2182,1765,75,0,34829
2182,1520,75,0,34839
2182,1502,75,0,34849
2182,1535,75,0,34859
2182,1524,75,0,34869
2183,1508,75,0,34879
2183,1512,75,0,34889
2183,1535,75,0,34899
2183,1598,75,0,34909
2184,1663,75,0,34919
2184,1674,75,0,34929
2184,1646,75,0,34939
2184,1866,75,0,34949
2185,2545,75,0,34959
2326,3984,67,0,34969
2326,2743,67,0,34979
2327,1330,67,0,34989
2327,2173,67,0,34999
2327,2095,67,0,35009
2327,2047,67,0,35019
2328,2158,67,0,35029
2328,2057,67,0,35039
2328,2003,67,0,35049
2328,2103,67,0,35059
2329,2125,67,0,35069
2329,2192,67,0,35079
2329,2224,67,0,35089
2329,2306,67,0,35099
2330,2322,67,0,35109
2330,2387,67,0,35119
2330,2461,67,0,35129
2330,2529,67,0,35139
2330,2559,67,0,35149
2331,2672,67,0,35159
2331,2784,67,0,35169
2589,2956,67,0,35179
2590,3024,67,0,35189
2590,3121,67,0,35199
2590,3264,67,0,35209
2591,3315,67,0,35219
2591,3434,67,0,35229
2592,3583,67,0,35239
2592,3378,67,0,35249
2592,3527,67,0,35259
2592,3340,67,0,35269
2593,3350,67,0,35279
2593,3347,67,0,35289
2593,3187,67,0,35299
2593,3371,67,0,35309
2594,3501,67,0,35319
2594,3559,67,0,35329
2594,3607,67,0,35339
2594,3763,67,0,35349
2594,3945,67,0,35359
2595,4091,67,0,35369
2794,4095,67,0,35379
2794,4095,67,0,35389
2794,4095,67,0,35399
2795,4095,67,0,35409
2795,4095,67,0,35419
2795,4095,67,0,35429
2795,4095,67,0,35439
2795,4095,67,0,35449
2796,4095,67,0,35459
2796,4095,67,0,35469
2796,4095,67,0,35479
2796,4095,67,0,35489
2797,4095,67,0,35499
2797,4095,67,0,35509
2797,4095,67,0,35519
2797,4095,67,0,35529
2797,4095,67,0,35539
2798,4095,67,0,35549
2798,4095,67,0,35559
2798,4095,67,0,35569
2798,4095,67,0,35579
2999,4095,67,0,35589
2999,4095,67,0,35599
2999,4095,67,0,35609
3000,4095,67,0,35619
3000,4095,67,0,35629
3000,4095,67,0,35639
3000,4095,67,0,35649
3001,4095,67,0,35659
3001,4095,67,0,35669
3001,4095,67,0,35679
3001,4095,67,0,35689
3002,4095,67,0,35699
3002,4095,67,0,35709
3002,4095,67,0,35719
3002,4095,67,0,35729
3002,4095,67,0,35739
3003,4095,67,0,35749
3003,4095,67,0,35759
3003,4095,67,0,35769
3003,4095,67,0,35779
3203,4095,67,0,35789
3204,4095,67,0,35799
3204,4095,67,0,35809
3204,4095,67,0,35819
3205,4095,67,0,35829
3205,4095,67,0,35839
3205,4095,67,0,35849
3205,4095,67,0,35859
3206,4095,67,0,35869
3206,4095,67,0,35879
3206,4095,67,0,35889
3206,3247,67,0,35899
3207,2937,67,0,35909
3207,3375,67,0,35919
3207,2981,67,0,35929
3208,2965,67,0,35939
3208,2893,67,0,35949
3209,2906,67,0,35959
3209,2830,67,0,35969
3210,2713,67,0,35979
3210,2732,67,0,35989
3310,2818,67,0,35999
3310,2709,67,0,36009
3311,2657,67,0,36019
3311,2558,67,0,36029
3311,2495,67,0,36039
3311,2369,67,0,36049
3311,2409,67,0,36059
3312,2193,67,0,36069
3312,2159,67,0,36079
3312,2081,67,0,36089
3312,2095,67,0,36099
3313,1925,67,0,36109
3313,1984,67,0,36119
3313,1990,67,0,36129
3313,1841,67,0,36139
3313,1870,67,0,36149
3314,1607,67,0,36159
3314,1533,67,0,36169
3314,1388,67,0,36179
3314,1307,67,0,36189
3516,1360,67,0,36199
3517,1382,67,0,36209
3517,1227,67,0,36219
3517,1251,67,0,36229
3518,1192,67,0,36239
3518,1154,67,0,36249
3518,1122,67,0,36259
3518,956,67,0,36269
3518,930,67,0,36279
3519,887,67,0,36289
3519,859,67,0,36299
3519,775,67,0,36309
3519,816,67,0,36319
3520,768,67,0,36329
3520,740,67,0,36339
3520,709,67,0,36349
3520,685,67,0,36359
3520,645,67,0,36369
3521,662,67,0,36379
3521,580,67,0,36389
3720,644,67,0,36399
3721,755,67,0,36409
3721,617,67,0,36419
3722,635,67,0,36429
3722,672,67,0,36439
3722,592,67,0,36449
3722,639,67,0,36459
3722,511,67,0,36469
3723,411,67,0,36479
3723,424,67,0,36489
3723,371,67,0,36499
3723,432,67,0,36509
3724,368,67,0,36519
3724,400,67,0,36529
3724,382,67,0,36539
3724,425,67,0,36549
3724,538,67,0,36559
3725,361,67,0,36569
3725,464,67,0,36579
3725,496,67,0,36589
3725,382,67,0,36599
3926,528,67,0,36609
3927,529,67,0,36619
3927,496,67,0,36629
3927,541,67,0,36639
3927,500,67,0,36649
3928,567,67,0,36659
3928,496,67,0,36669
3928,432,67,0,36679
3928,372,67,0,36689
3928,597,67,0,36699
3929,1191,67,0,36709
3929,2064,67,0,36719
3929,1194,67,0,36729
3929,0,67,0,36739
3930,547,67,0,36749
3930,453,67,0,36759
3930,481,67,0,36769
3930,448,67,0,36779
3931,499,67,0,36789
3931,448,67,0,36799
4132,591,67,0,36809
4133,648,67,0,36819
4133,646,67,0,36829
4133,715,67,0,36839
4134,733,67,0,36849
4134,647,67,0,36859
4134,759,67,0,36869
4134,677,67,0,36879
4134,623,67,0,36889
4135,599,67,0,36899
4135,645,67,0,36909
4135,665,67,0,36919
4135,687,67,0,36929
4136,731,67,0,36939
4136,750,67,0,36949
4136,789,67,0,36959
4136,813,67,0,36969
4136,827,67,0,36979
4137,848,67,0,36989
4137,749,67,0,36999
4137,732,67,0,37009
4188,765,67,0,37019
4188,754,67,0,37029
4188,719,67,0,37039
4189,771,67,0,37049
4189,752,67,0,37059
4189,765,67,0,37069
4236,805,67,0,37079
4237,828,67,0,37089
4237,822,67,0,37099
4238,835,67,0,37109
4238,909,67,0,37119
4288,880,67,0,37129
4289,939,67,0,37139
4289,901,67,0,37149
4289,977,67,0,37159
4289,941,67,0,37169
4338,957,67,0,37179
4338,1066,67,0,37189
4339,1005,67,0,37199
4339,1014,67,0,37209
4339,1079,67,0,37219
4540,1053,67,0,37229
4540,1137,67,0,37239
4541,1107,67,0,37249
4541,1214,67,0,37259
4541,1187,67,0,37269
4542,1237,67,0,37279
4542,1268,67,0,37289
4542,1174,67,0,37299
4542,1237,67,0,37309
4542,1375,67,0,37319
4543,1415,67,0,37329
4543,1535,67,0,37339
4543,1690,67,0,37349
4543,1840,67,0,37359
4544,2028,67,0,37369
4544,2353,67,0,37379
4544,2704,67,0,37389
4545,3280,57,0,37399
4545,4095,57,0,37409
4546,4095,57,0,37419
4745,4095,57,0,37429
4746,4095,57,0,37439
4746,4095,57,0,37449
4746,4095,57,0,37459
4747,4095,57,0,37469
4747,4095,57,0,37479
4747,4095,57,0,37489
4747,4095,57,0,37499
4747,4095,57,0,37509
4748,4095,57,0,37519
4748,4095,57,0,37529
4748,4095,57,0,37539
4748,4095,57,0,37549
4749,4095,57,0,37559
4749,4095,57,0,37569
4749,4095,57,0,37579
4749,4095,57,0,37589
4749,4095,57,0,37599
4750,4095,57,0,37609
4750,4095,57,0,37619
4798,3887,57,0,37629
4798,3607,57,0,37639
4798,3562,57,0,37649
4799,3338,57,0,37659
4799,3200,57,0,37669
4799,3086,57,0,37679
4850,3028,57,0,37689
4851,2887,57,0,37699
4851,2768,57,0,37709
4851,2720,57,0,37719
4852,2639,57,0,37729
4948,2670,57,0,37739
4949,2507,57,0,37749
4949,2497,57,0,37759
4949,2347,57,0,37769
4949,2397,57,0,37779
4950,2319,57,0,37789
4950,2225,57,0,37799
4950,2126,57,0,37809
4950,2059,57,0,37819
4951,2025,57,0,37829
5001,2078,57,0,37839
5001,2017,57,0,37849
5001,1858,57,0,37859
5002,1638,57,0,37869
5002,1597,57,0,37879
5154,1534,57,0,37889
5155,1392,57,0,37899
5155,1392,57,0,37909
5155,1330,57,0,37919
5155,1309,57,0,37929
5156,1282,57,0,37939
5156,1279,57,0,37949
5156,1117,57,0,37959
5157,1062,57,0,37969
5157,997,57,0,37979
5157,975,57,0,37989
5157,1035,57,0,37999
5158,945,57,0,38009
5158,896,57,0,38019
5158,945,57,0,38029
5456,939,57,0,38039
5457,1058,57,0,38049
5457,913,57,0,38059
5458,980,57,0,38069
5458,943,57,0,38079
5458,929,57,0,38089
5458,896,57,0,38099
5459,805,57,0,38109
5459,748,57,0,38119
5459,695,57,0,38129
5459,619,57,0,38139
5459,694,57,0,38149
5460,656,57,0,38159
5460,685,57,0,38169
5460,661,57,0,38179
5460,635,57,0,38189
5461,674,57,0,38199
5461,642,57,0,38209
5461,621,57,0,38219
5461,629,57,0,38229
5462,676,57,0,38239
5662,736,57,0,38249
5662,798,57,0,38259
5662,801,57,0,38269
5663,819,57,0,38279
5663,937,57,0,38289
5663,797,57,0,38299
5663,826,57,0,38309
5664,773,57,0,38319
5664,717,57,0,38329
5664,623,57,0,38339
5664,625,57,0,38349
5665,677,57,0,38359
5665,729,57,0,38369
5665,720,57,0,38379
5665,752,57,0,38389
5665,822,57,0,38399
5666,871,57,0,38409
5666,857,57,0,38419
5666,977,57,0,38429
5666,1569,57,0,38439
5866,2543,57,0,38449
5866,2886,57,0,38459
5867,642,57,0,38469
5867,1443,57,0,38479
5867,1535,57,0,38489
5867,1504,57,0,38499
5868,1664,57,0,38509
5868,1638,57,0,38519
5868,1712,57,0,38529
5868,1869,57,0,38539
5869,2103,57,0,38549
5869,2253,57,0,38559
5869,2407,57,0,38569
5869,2609,57,0,38579
5870,2701,57,0,38589
5870,2691,57,0,38599
5870,2821,57,0,38609
5871,2842,57,0,38619
5871,2928,57,0,38629
5871,2927,57,0,38639
5872,2993,57,0,38649
6053,3170,52,0,38659
6053,3237,52,0,38669
6054,3188,52,0,38679
6054,3376,52,0,38689
6054,3361,52,0,38699
6054,3344,52,0,38709
6055,3454,52,0,38719
6055,3101,52,0,38729
6055,3021,52,0,38739
6055,2859,52,0,38749
6056,2672,52,0,38759
6056,2608,52,0,38769
6056,2487,52,0,38779
6056,2482,52,0,38789
6056,2384,52,0,38799
6057,2381,52,0,38809
6057,2303,52,0,38819
6057,2283,52,0,38829
6057,2251,52,0,38839
6057,2160,52,0,38849
6276,2239,52,0,38859
6276,2275,52,0,38869
6276,2145,52,0,38879
6276,2134,52,0,38889
6277,2139,52,0,38899
6277,2026,52,0,38909
6277,2064,52,0,38919
6278,1872,52,0,38929
6278,1782,52,0,38939
6278,1776,52,0,38949
6278,1726,52,0,38959
6279,1696,52,0,38969
6279,1703,52,0,38979
6279,1677,52,0,38989
6280,1639,52,0,38999
6280,1649,52,0,39009
6281,1629,52,0,39019
6281,1654,52,0,39029
6281,1621,52,0,39039
6282,1648,52,0,39049
6282,1597,52,0,39059
6282,1813,52,0,39069
6481,1769,52,0,39079
6481,1740,52,0,39089
6482,1782,52,0,39099
6482,1785,52,0,39109
6482,1825,52,0,39119
6482,1777,52,0,39129
6483,1768,52,0,39139
6483,1659,52,0,39149
6483,1721,52,0,39159
6483,1807,52,0,39169
6483,1746,52,0,39179
6484,1759,52,0,39189
6484,1872,52,0,39199
6484,1762,52,0,39209
6484,1808,52,0,39219
6484,1776,52,0,39229
6485,1843,52,0,39239
6485,1765,52,0,39249
6485,1895,52,0,39259
6685,1999,52,0,39269
6685,2182,52,0,39279
6686,2096,52,0,39289
6686,2157,52,0,39299
6686,2184,52,0,39309
6686,2697,52,0,39319
6687,3632,54,0,39329
6687,4095,54,0,39339
6687,1855,54,0,39349
6687,2087,54,0,39359
6688,2399,54,0,39369
6688,2336,54,0,39379
6688,2394,54,0,39389
6688,2438,54,0,39399
6688,2471,54,0,39409
6689,2482,54,0,39419
6689,2688,54,0,39429
6689,2721,54,0,39439
6689,2750,54,0,39449
6689,2881,54,0,39459
6689,2977,54,0,39469
6890,3280,54,0,39479
6890,3583,54,0,39489
6891,4095,54,0,39499
6891,4095,54,0,39509
6891,4095,54,0,39519
6891,4095,54,0,39529
6891,4095,54,0,39539
6892,4095,54,0,39549
6892,4095,54,0,39559
6892,4095,54,0,39569
6892,4095,54,0,39579
6892,4095,54,0,39589
6893,4095,54,0,39599
6893,4095,54,0,39609
6893,4095,54,0,39619
6893,4095,54,0,39629
6893,4095,54,0,39639
6893,4095,54,0,39649
6894,4095,54,0,39659
6894,4095,54,0,39669
7095,4095,54,0,39679
7095,4095,54,0,39689
7095,4095,54,0,39699
7096,4095,54,0,39709
7096,4095,54,0,39719
7096,4095,54,0,39729
7096,4095,54,0,39739
7096,3598,54,0,39749
7096,3407,54,0,39759
7097,3213,54,0,39769
7097,3040,54,0,39779
7097,2935,54,0,39789
7097,2774,54,0,39799
7098,2671,54,0,39809
7098,2547,54,0,39819
7098,2464,54,0,39829
7098,2383,54,0,39839
7098,2254,54,0,39849
7099,2215,54,0,39859
7099,2114,54,0,39869
7099,2034,54,0,39879
7300,2032,54,0,39889
7300,1962,54,0,39899
7300,1905,54,0,39909
7300,1755,54,0,39919
7301,1765,54,0,39929
7301,1644,54,0,39939
7301,1509,54,0,39949
7301,1360,54,0,39959
7301,1285,54,0,39969
7302,1164,54,0,39979
7302,1175,54,0,39989
7302,1230,54,0,39999
7302,1125,54,0,40009
7302,942,54,0,40019
7302,1072,54,0,40029
7303,939,54,0,40039
7303,813,54,0,40049
7303,743,54,0,40059
7303,749,54,0,40069
7303,656,54,0,40079
7505,784,54,0,40089
7505,785,54,0,40099
7506,693,54,0,40109
7506,717,54,0,40119
7506,640,54,0,40129
7507,635,54,0,40139
7507,880,54,0,40149
7507,1435,54,0,40159
7507,2240,54,0,40169
7507,435,54,0,40179
7507,61,54,0,40189
7508,350,54,0,40199
7508,254,54,0,40209
7508,255,54,0,40219
7508,200,54,0,40229
7508,156,54,0,40239
7508,149,54,0,40249
7508,144,54,0,40259
7509,131,54,0,40269
7509,147,54,0,40279
7509,134,54,0,40289
7709,304,54,0,40299
7710,183,54,0,40309
7710,209,54,0,40319
7710,194,54,0,40329
7710,240,54,0,40339
7711,222,54,0,40349
7711,135,54,0,40359
7711,155,54,0,40369
7711,194,54,0,40379
7711,136,54,0,40389
7712,174,54,0,40399
7712,190,54,0,40409
7712,190,54,0,40419
7712,245,54,0,40429
7712,214,54,0,40439
7713,218,54,0,40449
7713,117,54,0,40459
7713,6,54,0,40469
7713,32,54,0,40479
7713,0,54,0,40489
7914,131,54,0,40499
7914,127,54,0,40509
7915,185,54,0,40519
7915,213,54,0,40529
7915,181,54,0,40539
7916,242,54,0,40549
7916,278,54,0,40559
7916,180,54,0,40569
7916,199,54,0,40579
7917,271,54,0,40589
7917,255,54,0,40599
7917,304,54,0,40609
7917,286,54,0,40619
7918,371,54,0,40629
7918,320,54,0,40639
7918,435,54,0,40649
7919,368,54,0,40659
7919,439,54,0,40669
7919,526,54,0,40679
7919,478,54,0,40689
7920,561,54,0,40699
8066,692,54,0,40709
8066,659,54,0,40719
8067,709,54,0,40729
8067,701,54,0,40739
8067,784,54,0,40749
8067,704,54,0,40759
8068,735,54,0,40769
8068,678,54,0,40779
8068,692,54,0,40789
8069,772,54,0,40799
8069,863,54,0,40809
8069,813,54,0,40819
8069,873,54,0,40829
8070,848,54,0,40839
8070,889,54,0,40849
8070,879,54,0,40859
8070,875,54,0,40869
8071,950,54,0,40879
8071,927,54,0,40889
8071,1040,54,0,40899
8112,1129,54,0,40909
8113,1220,54,0,40919
8113,1254,54,0,40929
8114,1224,54,0,40939
8114,1407,54,0,40949
8114,1984,54,0,40959
8114,2764,54,0,40969
8115,2734,54,0,40979
8115,784,54,0,40989
8324,1535,54,0,40999
8324,1506,54,0,41009
8324,1535,54,0,41019
8324,1567,54,0,41029
8325,1636,54,0,41039
8325,1599,54,0,41049
8325,1577,54,0,41059
8326,1666,54,0,41069
8326,1553,54,0,41079
8326,1581,54,0,41089
8326,1664,54,0,41099
8528,1751,54,0,41109
8529,1833,54,0,41119
8529,1872,54,0,41129
8529,1935,54,0,41139
8530,1983,54,0,41149
8530,1954,54,0,41159
8530,2009,54,0,41169
8530,1952,54,0,41179
8531,1949,54,0,41189
8531,1987,54,0,41199
8531,2085,54,0,41209
8531,2057,54,0,41219
8531,2134,54,0,41229
8532,2170,54,0,41239
8532,2117,54,0,41249
8532,2029,54,0,41259
8532,2000,54,0,41269
8532,1962,54,0,41279
8533,1962,54,0,41289
8533,1994,54,0,41299
8533,1962,54,0,41309
8733,2181,54,0,41319
8734,2221,54,0,41329
8734,2255,54,0,41339
8734,2261,54,0,41349
8734,2303,54,0,41359
8735,2377,54,0,41369
8735,2667,54,0,41379
8735,2588,54,0,41389
8735,2204,54,0,41399
8736,2374,54,0,41409
8736,2285,54,0,41419
8736,2324,54,0,41429
8736,2283,54,0,41439
8737,2356,54,0,41449
8737,2325,54,0,41459
8737,2317,54,0,41469
8737,2317,54,0,41479
8738,2351,54,0,41489
8738,2350,54,0,41499
8738,2338,54,0,41509
8938,2474,54,0,41519
8938,2471,54,0,41529
8939,2545,54,0,41539
8939,2511,54,0,41549
8939,2511,54,0,41559
8939,2538,54,0,41569
8940,2486,54,0,41579
8940,2442,54,0,41589
8940,2379,54,0,41599
8940,2305,54,0,41609
8941,2345,54,0,41619
8941,2413,54,0,41629
8941,2402,54,0,41639
8941,2367,54,0,41649
8942,2399,54,0,41659
8942,2347,54,0,41669
8942,2278,54,0,41679
8942,2270,54,0,41689
8943,2212,54,0,41699
8943,2238,54,0,41709
8943,2223,54,0,41719
9143,2330,54,0,41729
9143,2399,54,0,41739
9143,2287,54,0,41749
9144,2377,54,0,41759
9144,2233,54,0,41769
9144,2511,54,0,41779
9144,3181,44,0,41789
9145,4095,44,0,41799
9145,2925,44,0,41809
9145,1521,44,0,41819
9145,2167,44,0,41829
9146,2105,44,0,41839
9146,2045,44,0,41849
9146,2065,44,0,41859
9146,1991,44,0,41869
9147,2026,44,0,41879
9147,2062,44,0,41889
9147,2020,44,0,41899
9147,2030,44,0,41909
9147,1986,44,0,41919
9348,2147,44,0,41929
9348,2153,44,0,41939
9348,2199,44,0,41949
9349,2221,44,0,41959
9349,2213,44,0,41969
9349,2256,44,0,41979
9349,2273,44,0,41989
9350,2249,44,0,41999
9350,2141,44,0,42009
9350,2313,44,0,42019
9351,2347,44,0,42029
9351,2320,44,0,42039
9351,2465,44,0,42049
9352,2479,44,0,42059
9352,2526,44,0,42069
9353,2464,44,0,42079
9353,2431,44,0,42089
9353,2423,44,0,42099
9353,2419,44,0,42109
9354,2400,44,0,42119
9354,2448,44,0,42129
9553,2591,44,0,42139
9553,2621,44,0,42149
9554,2640,44,0,42159
9554,2630,44,0,42169
9554,2605,44,0,42179
9554,2518,44,0,42189
9554,2587,44,0,42199
9555,2342,44,0,42209
9555,2277,44,0,42219
9555,2224,44,0,42229
9555,2079,44,0,42239
9555,2032,44,0,42249
9556,1950,44,0,42259
9556,1850,44,0,42269
9556,1843,44,0,42279
9556,1762,44,0,42289
9557,1614,44,0,42299
9557,1605,44,0,42309
9557,1535,44,0,42319
9557,1424,44,0,42329
9860,1500,44,0,42339
9860,1583,44,0,42349
9860,1402,44,0,42359
9861,1374,44,0,42369
9861,1399,44,0,42379
9861,1232,44,0,42389
9861,1296,44,0,42399
9862,1121,44,0,42409
9862,995,44,0,42419
9862,995,44,0,42429
9862,951,44,0,42439
9862,870,44,0,42449
9863,883,44,0,42459
9863,880,44,0,42469
9863,990,44,0,42479
9863,864,44,0,42489
9864,848,44,0,42499
9864,895,44,0,42509
9864,797,44,0,42519
9864,729,44,0,42529
9864,756,44,0,42539
9918,782,44,0,42549
9919,799,44,0,42559
9919,848,44,0,42569
9920,817,44,0,42579
9920,785,44,0,42589
9920,811,44,0,42599
9920,781,44,0,42609
9921,592,44,0,42619
9921,923,44,0,42629
9921,1730,44,0,42639
9921,2526,44,0,42649
9921,453,44,0,42659
9922,303,44,0,42669
9922,803,44,0,42679
9922,646,44,0,42689
9922,603,44,0,42699
9923,646,44,0,42709
9923,583,44,0,42719
9923,624,44,0,42729
9923,679,44,0,42739
9924,720,44,0,42749
9924,667,44,0,42759
9924,710,44,0,42769
9924,647,44,0,42779
9925,717,44,0,42789
10069,749,44,0,42799
10070,775,44,0,42809
10070,926,44,0,42819
10070,930,44,0,42829
10071,948,44,0,42839
10071,946,44,0,42849
10071,983,44,0,42859
10071,1007,44,0,42869
10072,918,44,0,42879
10072,963,44,0,42889
10072,986,44,0,42899
10072,989,44,0,42909
10073,955,44,0,42919
10073,949,44,0,42929
10073,801,44,0,42939
10074,768,44,0,42949
10126,914,44,0,42959
10139,851,44,0,42969
10139,896,44,0,42979
10140,948,44,0,42989
10140,929,44,0,42999
10140,971,44,0,43009
10183,1054,44,0,43019
10184,1055,44,0,43029
10184,1106,44,0,43039
10184,1095,44,0,43049
10185,1199,44,0,43059
10237,1195,44,0,43069
10238,1233,44,0,43079
10238,1257,44,0,43089
10239,1350,44,0,43099
10239,1328,44,0,43109
10239,1354,44,0,43119
10576,1398,44,0,43129
10577,1507,44,0,43139
10577,1437,44,0,43149
10577,1456,44,0,43159
10578,1623,44,0,43169
10578,1584,44,0,43179
10578,1581,44,0,43189
10578,1485,44,0,43199
10579,1616,44,0,43209
10579,1609,44,0,43219
10579,1653,44,0,43229
10579,1732,44,0,43239
10580,1737,44,0,43249
10580,1885,44,0,43259
10580,1888,44,0,43269
10580,1945,44,0,43279
10580,1938,44,0,43289
10581,2047,44,0,43299
10581,2148,44,0,43309
10581,2192,44,0,43319
10581,2199,44,0,43329
10582,2282,44,0,43339
10582,2326,44,0,43349
10582,2337,44,0,43359
10781,2449,44,0,43369
10782,2528,44,0,43379
10782,2519,44,0,43389
10782,2587,44,0,43399
10783,2613,44,0,43409
10783,2613,44,0,43419
10783,2688,44,0,43429
10783,2559,44,0,43439
10783,2478,44,0,43449
10784,2767,44,0,43459
10784,3452,44,0,43469
10784,4095,44,0,43479
10784,4095,44,0,43489
10784,2418,44,0,43499
10785,2528,44,0,43509
10785,2831,44,0,43519
10785,2720,44,0,43529
10785,2769,44,0,43539
10786,2745,44,0,43549
10787,2736,44,0,43559
11088,2896,44,0,43569
11089,2899,44,0,43579
11089,2894,44,0,43589
11089,2957,44,0,43599
11090,2891,44,0,43609
11090,3012,44,0,43619
11090,2922,44,0,43629
11090,2798,44,0,43639
11091,2754,44,0,43649
11091,2742,44,0,43659
11091,2795,44,0,43669
11091,2768,44,0,43679
11091,2772,44,0,43689
11092,2802,44,0,43699
11092,2743,44,0,43709
11092,2749,44,0,43719
11093,2794,44,0,43729
11093,2746,44,0,43739
11093,2751,44,0,43749
11093,2626,44,0,43759
11094,2559,44,0,43769
11149,2599,44,0,43779
11149,2480,44,0,43789
11150,2459,44,0,43799
11150,2416,44,0,43809
11150,2354,44,0,43819
11150,2386,44,0,43829
11151,2320,44,0,43839
11151,2192,44,0,43849
11151,2176,44,0,43859
11151,2108,44,0,43869
11152,2072,44,0,43879
11152,2056,44,0,43889
11152,2066,44,0,43899
11152,1994,44,0,43909
11152,1949,44,0,43919
11153,1998,44,0,43929
11153,1915,44,0,43939
11153,1897,44,0,43949
11154,1873,44,0,43959
11154,1897,44,0,43969
11155,1895,44,0,43979
11155,1797,44,0,43989
11156,1712,44,0,43999
11156,1794,44,0,44009
11396,1680,44,0,44019
11397,1748,44,0,44029
11397,1842,44,0,44039
11397,1753,44,0,44049
11397,1723,44,0,44059
11398,1733,44,0,44069
11398,1743,44,0,44079
11398,1673,44,0,44089
11398,1657,44,0,44099
11398,1561,44,0,44109
11399,1510,44,0,44119
11399,1453,44,0,44129
11399,1443,44,0,44139
11399,1456,44,0,44149
11399,1339,44,0,44159
11400,1303,44,0,44169
11400,1318,44,0,44179
11608,1444,44,0,44189
11608,1346,44,0,44199
11608,1327,44,0,44209
11609,1347,44,0,44219
11609,1337,44,0,44229
11609,1296,44,0,44239
11610,1224,44,0,44249
11610,1203,44,0,44259
11610,1753,44,0,44269
11610,2462,44,0,44279
11611,2431,44,0,44289
11611,459,44,0,44299
11611,1104,44,0,44309
11611,1061,44,0,44319
11612,1056,44,0,44329
11612,1008,44,0,44339
11612,994,44,0,44349
11612,985,44,0,44359
11613,981,44,0,44369
11613,978,44,0,44379
11908,1081,44,0,44389
11908,1090,44,0,44399
11909,1114,44,0,44409
11909,1040,44,0,44419
11909,1122,44,0,44429
11909,1047,44,0,44439
11910,1088,44,0,44449
11910,922,44,0,44459
11910,939,44,0,44469
11910,950,44,0,44479
11911,897,44,0,44489
11911,998,44,0,44499
11911,955,44,0,44509
11911,988,44,0,44519
11912,1007,44,0,44529
11912,1039,44,0,44539
11912,983,44,0,44549
11912,969,44,0,44559
11913,825,44,0,44569
11913,831,44,0,44579
11913,762,44,0,44589
11967,803,44,0,44599
11968,865,44,0,44609
11968,881,44,0,44619
11968,826,44,0,44629
11969,838,44,0,44639
11969,842,44,0,44649
11969,775,44,0,44659
11969,710,44,0,44669
11969,695,44,0,44679
11970,737,44,0,44689
11970,732,44,0,44699
11970,725,44,0,44709
11971,697,44,0,44719
11971,763,44,0,44729
11973,727,44,0,44739
11973,763,44,0,44749
11973,752,44,0,44759
11975,722,44,0,44769
11975,806,44,0,44779
11975,748,44,0,44789
11975,851,44,0,44799
11976,799,44,0,44809
11976,809,44,0,44819
11976,816,44,0,44829
11977,825,44,0,44839
12118,825,44,0,44849
12118,877,44,0,44859
12118,1014,44,0,44869
12119,1019,44,0,44879
12119,1053,44,0,44889
12119,1053,44,0,44899
12120,1021,44,0,44909
12120,1074,44,0,44919
12120,991,44,0,44929
12120,946,44,0,44939
12120,976,44,0,44949
12121,1019,44,0,44959
12121,916,44,0,44969
12121,960,44,0,44979
12122,929,44,0,44989
12122,957,44,0,44999
12420,1093,44,0,45009
12420,1133,44,0,45019
12420,1131,44,0,45029
12421,1184,44,0,45039
12421,1149,44,0,45049
12421,1106,44,0,45059
12421,1227,44,0,45069
12421,1726,44,0,45079
12422,2481,44,0,45089
12422,2224,44,0,45099
12422,384,44,0,45109
12423,1081,44,0,45119
12423,1082,44,0,45129
12423,1047,44,0,45139
12423,1094,44,0,45149
12424,1057,44,0,45159
12424,1094,44,0,45169
12424,1118,44,0,45179
12424,1088,44,0,45189
12425,1118,44,0,45199
12624,1243,44,0,45209
12625,1337,44,0,45219
12625,1281,44,0,45229
12625,1372,44,0,45239
12626,1323,44,0,45249
12626,1359,44,0,45259
12626,1395,44,0,45269
12626,1232,44,0,45279
12626,1281,44,0,45289
12627,1254,44,0,45299
12627,1300,44,0,45309
12627,1337,44,0,45319
12627,1293,44,0,45329
12628,1344,44,0,45339
12628,1335,44,0,45349
12628,1473,44,0,45359
12628,1328,44,0,45369
12629,1204,44,0,45379
12629,1167,44,0,45389
12629,1111,44,0,45399
12629,1163,44,0,45409
12829,1239,44,0,45419
12830,1263,44,0,45429
12830,1253,44,0,45439
12831,1243,44,0,45449
12831,1270,44,0,45459
12831,1251,44,0,45469
12832,1261,44,0,45479
12832,1077,44,0,45489
12832,1195,44,0,45499
12832,1136,44,0,45509
12833,1104,44,0,45519
12833,1147,44,0,45529
12833,1185,44,0,45539
12834,1114,44,0,45549
12834,1181,44,0,45559
12834,1168,44,0,45569
12835,1166,44,0,45579
12835,1152,44,0,45589
12835,1162,44,0,45599
12836,1129,44,0,45609
13034,1321,44,0,45619
13035,1392,44,0,45629
13035,1372,44,0,45639
13035,1328,44,0,45649
13035,1412,44,0,45659
13036,1372,44,0,45669
13036,1351,44,0,45679
13036,1202,44,0,45689
13036,1211,44,0,45699
13036,1235,44,0,45709
13037,1215,44,0,45719
13037,1265,44,0,45729
13037,1206,44,0,45739
13037,1362,44,0,45749
13037,1219,44,0,45759
13038,1360,44,0,45769
13038,1379,44,0,45779
13038,1278,44,0,45789
13038,1357,44,0,45799
13039,1362,44,0,45809
13039,1349,44,0,45819
13239,1476,44,0,45829
13239,1481,44,0,45839
13240,1497,44,0,45849
13240,1460,44,0,45859
13240,1472,44,0,45869
13241,1521,44,0,45879
13241,1455,44,0,45889
13241,1326,44,0,45899
13241,1293,44,0,45909
13242,1556,44,0,45919
13242,2208,44,0,45929
13242,3014,44,0,45939
13242,2164,44,0,45949
13243,767,44,0,45959
13243,1535,44,0,45969
13243,1411,44,0,45979
13243,1424,44,0,45989
13244,1393,44,0,45999
13244,1434,44,0,46009
13244,1426,44,0,46019
13444,1583,44,0,46029
13444,1680,44,0,46039
13445,1606,44,0,46049
13445,1633,44,0,46059
13445,1625,44,0,46069
13446,1651,44,0,46079
13446,1633,44,0,46089
13446,1445,44,0,46099
13446,1535,44,0,46109
13446,1488,44,0,46119
13447,1557,44,0,46129
13447,1495,44,0,46139
13447,1527,44,0,46149
13447,1523,44,0,46159
13448,1583,44,0,46169
13448,1567,44,0,46179
13448,1638,44,0,46189
13448,1622,44,0,46199
13448,1607,44,0,46209
13449,1553,44,0,46219
13619,1534,44,0,46229
13619,1575,44,0,46239
13620,1474,44,0,46249
13620,1421,44,0,46259
13620,1462,44,0,46269
13620,1368,44,0,46279
13621,1472,44,0,46289
13621,1339,44,0,46299
13621,1261,44,0,46309
13621,1289,44,0,46319
13621,1250,44,0,46329
13622,1236,44,0,46339
13622,1247,44,0,46349
13622,1317,44,0,46359
13622,1271,44,0,46369
13622,1305,44,0,46379
13623,1314,44,0,46389
13623,1392,44,0,46399
13623,1367,44,0,46409
13624,1311,44,0,46419
13624,1350,44,0,46429
13755,1437,44,0,46439
13756,1483,44,0,46449
13756,1434,44,0,46459
13756,1511,44,0,46469
13756,1476,44,0,46479
13757,1457,44,0,46489
13757,1505,44,0,46499
13758,1287,44,0,46509
13758,1338,44,0,46519
13758,1306,44,0,46529
13758,1346,44,0,46539
13759,1357,44,0,46549
13759,1339,44,0,46559
13759,1360,44,0,46569
13759,1299,44,0,46579
13759,1381,44,0,46589
13760,1405,44,0,46599
13760,1344,44,0,46609
13760,1456,44,0,46619
13760,1407,44,0,46629
14066,1582,44,0,46639
14066,1679,44,0,46649
14066,1754,44,0,46659
14067,1653,44,0,46669
14067,1695,44,0,46679
14067,1796,44,0,46689
14067,1664,44,0,46699
14067,1615,44,0,46709
14068,1483,44,0,46719
14068,1495,44,0,46729
14068,1587,44,0,46739
14068,1567,44,0,46749
14069,1574,44,0,46759
14069,1591,44,0,46769
14069,1580,44,0,46779
14069,1678,44,0,46789
14069,1819,44,0,46799
14070,2466,44,0,46809
14070,3374,48,0,46819
14070,3050,48,0,46829
14070,1210,48,0,46839
14263,1999,48,0,46849
14263,2139,48,0,46859
14264,2179,48,0,46869
14264,2078,48,0,46879
14265,2161,48,0,46889
14265,2181,48,0,46899
14265,2262,48,0,46909
14265,1967,48,0,46919
14266,2074,48,0,46929
14266,2160,48,0,46939
14266,2192,48,0,46949
14266,2183,48,0,46959
14267,2195,48,0,46969
14267,2313,48,0,46979
14267,2357,48,0,46989
14268,2417,48,0,46999
14268,2535,48,0,47009
14268,2559,48,0,47019
14268,2698,48,0,47029
14269,2641,48,0,47039
14269,2928,48,0,47049
14468,3106,48,0,47059
14468,2996,48,0,47069
14469,3093,48,0,47079
14469,3265,48,0,47089
14469,3120,48,0,47099
14470,3216,48,0,47109
14470,2832,48,0,47119
14470,2853,48,0,47129
14470,2781,48,0,47139
14470,2694,48,0,47149
14471,2850,48,0,47159
14471,2663,48,0,47169
14471,2981,48,0,47179
14471,2724,48,0,47189
14471,2755,48,0,47199
14472,2810,48,0,47209
14472,2697,48,0,47219
14472,2729,48,0,47229
14472,2736,48,0,47239
14472,2595,48,0,47249
14673,2926,48,0,47259
14673,2670,48,0,47269
14673,2627,48,0,47279
14674,2727,48,0,47289
14674,2361,48,0,47299
14674,2487,48,0,47309
14674,2455,48,0,47319
14675,2003,48,0,47329
14675,2447,48,0,47339
14675,1921,48,0,47349
14676,2054,48,0,47359
14676,1921,48,0,47369
14676,1776,48,0,47379
14676,1907,48,0,47389
14677,1610,48,0,47399
14677,1703,48,0,47409
14677,1454,48,0,47419
14677,1615,48,0,47429
14678,1379,48,0,47439
14678,1113,48,0,47449
14877,1337,48,0,47459
14878,1232,48,0,47469
14878,1312,48,0,47479
14878,1247,48,0,47489
14878,897,48,0,47499
14879,1019,48,0,47509
14879,937,48,0,47519
14879,531,48,0,47529
14879,535,48,0,47539
14880,315,48,0,47549
14880,210,48,0,47559
14880,187,48,0,47569
14880,0,48,0,47579
14881,0,48,0,47589
14881,0,48,0,47599
14881,0,48,0,47609
14881,0,48,0,47619
14882,0,48,0,47629
14882,0,48,0,47639
14882,843,48,0,47649
14882,0,48,0,47659
15082,0,48,0,47669
15083,0,48,0,47679
15083,0,48,0,47689
15084,0,48,0,47699
15084,0,48,0,47709
15084,0,48,0,47719
15084,0,48,0,47729
15085,0,48,0,47739
15085,0,48,0,47749
15085,0,48,0,47759
15085,0,48,0,47769
15086,0,48,0,47779
15086,0,48,0,47789
15086,0,48,0,47799
15086,0,48,0,47809
15087,0,48,0,47819
15087,0,48,0,47829
15088,0,48,0,47839
15088,0,48,0,47849
15088,0,48,0,47859
15287,0,48,0,47869
15288,0,48,0,47879
15288,0,48,0,47889
15288,0,48,0,47899
15288,0,48,0,47909
15289,0,48,0,47919
15289,0,48,0,47929
15289,0,48,0,47939
15290,0,48,0,47949
15290,0,48,0,47959
15292,0,48,0,47969
15292,0,48,0,47979
15296,0,48,0,47989
15297,0,48,0,47999
15297,0,48,0,48009
15297,0,48,0,48019
15298,0,48,0,48029
15298,0,48,0,48039
15298,0,48,0,48049
15299,0,48,0,48059
15299,0,48,0,48069
15395,0,48,0,48079
15395,0,48,0,48089
15395,0,48,0,48099
15395,0,48,0,48109
15396,0,48,0,48119
15396,0,48,0,48129
15396,0,48,0,48139
15396,0,48,0,48149
15397,183,48,0,48159
15397,404,48,0,48169
15397,234,48,0,48179
15397,0,48,0,48189
15397,48,48,0,48199
15398,0,48,0,48209
15398,0,48,0,48219
15398,0,48,0,48229
15398,0,48,0,48239
15399,496,48,0,48249
15399,61,48,0,48259
15399,351,48,0,48269
15600,531,48,0,48279
15600,723,48,0,48289
15601,972,48,0,48299
15601,755,48,0,48309
15601,862,48,0,48319
15601,1054,48,0,48329
15602,1243,48,0,48339
15602,1249,48,0,48349
15602,1066,48,0,48359
15602,1165,48,0,48369
15602,1278,48,0,48379
15603,1567,48,0,48389
15603,2256,48,0,48399
15603,2885,48,0,48409
15603,1984,48,0,48419
15604,590,48,0,48429
15605,932,48,0,48439
15605,1165,48,0,48449
15605,1155,48,0,48459
15606,1099,48,0,48469
15607,1003,48,0,48479
15805,1357,48,0,48489
15805,1526,48,0,48499
15806,1414,48,0,48509
15806,1493,48,0,48519
15806,1792,48,0,48529
15806,1256,48,0,48539
15807,1521,48,0,48549
15807,925,48,0,48559
15807,889,48,0,48569
15808,1010,48,0,48579
15808,720,48,0,48589
15808,382,48,0,48599
15808,313,48,0,48609
15809,240,48,0,48619
15809,142,48,0,48629
15809,293,48,0,48639
15810,0,48,0,48649
15810,0,48,0,48659
15812,0,48,0,48669
15812,0,48,0,48679
16010,0,48,0,48689
16012,0,48,0,48699
16012,0,48,0,48709
16012,0,48,0,48719
16013,0,48,0,48729
16013,0,48,0,48739
16013,0,48,0,48749
16013,0,48,0,48759
16014,0,48,0,48769
16014,0,48,0,48779
16014,0,48,0,48789
16014,0,48,0,48799
16015,0,48,0,48809
16015,0,48,0,48819
16015,101,48,0,48829
16015,22,48,0,48839
16016,0,48,0,48849
16016,160,48,0,48859
16016,0,48,0,48869
16016,0,48,0,48879
16017,0,48,0,48889
16064,381,48,0,48899
16064,490,48,0,48909
16064,214,48,0,48919
16065,275,48,0,48929
16065,791,48,0,48939
16111,179,48,0,48949
16112,944,48,0,48959
16112,658,48,0,48969
16113,731,48,0,48979
16113,742,48,0,48989
16213,531,48,0,48999
16213,1109,48,0,49009
16213,677,48,0,49019
16213,576,48,0,49029
16214,979,48,0,49039
16214,624,48,0,49049
16214,946,48,0,49059
16214,1779,48,0,49069
16215,918,48,0,49079
16215,926,48,0,49089
16264,1136,48,0,49099
16264,867,48,0,49109
16264,801,48,0,49119
16265,1421,48,0,49129
16265,1457,48,0,49139
16315,2895,48,0,49149
16315,1203,48,0,49159
16316,304,48,0,49169
16316,987,48,0,49179
16316,1408,48,0,49189
16365,3248,35,0,49199
16365,4095,35,0,49209
16366,4095,35,0,49219
16366,4095,35,0,49229
16366,4095,35,0,49239
16416,4095,35,0,49249
16417,4095,35,0,49259
16417,4095,35,0,49269
16417,4095,35,0,49279
16417,4095,35,0,49289
16418,4095,35,0,49299
16470,4095,35,0,49309
16470,4095,35,0,49319
16470,4095,35,0,49329
16471,4095,35,0,49339
16471,4095,35,0,49349
16623,4095,35,0,49359
16624,4095,35,0,49369
16624,4095,35,0,49379
16625,4095,35,0,49389
16625,4095,35,0,49399
16625,4095,35,0,49409
16626,4095,35,0,49419
16626,4095,35,0,49429
16626,4095,35,0,49439
16626,4095,35,0,49449
16626,4095,35,0,49459
16627,4095,35,0,49469
16627,4095,35,0,49479
16627,4095,35,0,49489
16628,4095,35,0,49499
16674,4095,35,0,49509
16675,4095,35,0,49519
16675,4095,35,0,49529
16675,4095,35,0,49539
16676,4095,35,0,49549
16729,4095,35,0,49559
16730,4095,35,0,49569
16730,4095,35,0,49579
16730,4095,35,0,49589
16731,4095,35,0,49599
16731,4095,35,0,49609
16780,4095,35,0,49619
16781,4095,35,0,49629
16781,4095,35,0,49639
16781,2098,35,0,49649
16782,1236,35,0,49659
16833,736,35,0,49669
16833,112,35,0,49679
16833,0,35,0,49689
16833,0,35,0,49699
16834,0,35,0,49709
16880,0,35,0,49719
16880,0,35,0,49729
16880,0,35,0,49739
16881,0,35,0,49749
16881,0,35,0,49759
16931,0,35,0,49769
16931,0,35,0,49779
16932,0,35,0,49789
16932,0,35,0,49799
16932,0,35,0,49809
17032,0,35,0,49819
17033,0,35,0,49829
17033,0,35,0,49839
17033,0,35,0,49849
17033,0,35,0,49859
17034,0,35,0,49869
17034,0,35,0,49879
17034,0,35,0,49889
17034,0,35,0,49899
17035,0,35,0,49909
17238,0,35,0,49919
17238,0,35,0,49929
17239,0,35,0,49939
17239,0,35,0,49949
17239,0,35,0,49959
17239,0,35,0,49969
17240,0,35,0,49979
17240,0,35,0,49989
17240,0,35,0,49999
17240,0,35,0,50009
17241,0,35,0,50019
17241,0,35,0,50029
17241,0,35,0,50039
17241,0,35,0,50049
17242,0,35,0,50059
17242,0,35,0,50069
17242,0,35,0,50079
17242,0,35,0,50089
17242,0,35,0,50099
17243,0,35,0,50109
17243,0,35,0,50119
17540,0,35,0,50129
17540,0,35,0,50139
17541,0,35,0,50149
17541,0,35,0,50159
17541,0,35,0,50169
17541,0,35,0,50179
17542,0,35,0,50189
17542,0,35,0,50199
17542,0,35,0,50209
17542,0,35,0,50219
17543,0,35,0,50229
17543,0,35,0,50239
17543,0,35,0,50249
17543,0,35,0,50259
17544,0,35,0,50269
17544,0,35,0,50279
17544,0,35,0,50289
17544,0,35,0,50299
17545,0,35,0,50309
17545,0,35,0,50319
17745,0,35,0,50329
17745,0,35,0,50339
17745,0,35,0,50349
17745,0,35,0,50359
17746,0,35,0,50369
17746,0,35,0,50379
17746,0,35,0,50389
17747,0,35,0,50399
17747,0,35,0,50409
17747,0,35,0,50419
17748,0,35,0,50429
17748,0,35,0,50439
17748,0,35,0,50449
17748,0,35,0,50459
17749,0,35,0,50469
17749,0,35,0,50479
17749,0,35,0,50489
17749,0,35,0,50499
17749,0,35,0,50509
17750,0,35,0,50519
17750,0,35,0,50529
17949,0,35,0,50539
17950,0,35,0,50549
17950,0,35,0,50559
17951,0,35,0,50569
17951,0,35,0,50579
17952,0,35,0,50589
17953,0,35,0,50599
17954,0,35,0,50609
17954,0,35,0,50619
17954,0,35,0,50629
17955,0,35,0,50639
17955,0,35,0,50649
17956,0,35,0,50659
17957,0,35,0,50669
17958,0,35,0,50679
17959,0,35,0,50689
17959,0,35,0,50699
17960,0,35,0,50709
17960,0,35,0,50719
17961,0,35,0,50729
18058,0,35,0,50739
18058,0,35,0,50749
18058,0,35,0,50759
18059,1907,35,0,50769
18059,871,35,0,50779
18059,4095,38,0,50789
18059,4095,38,0,50799
18060,4095,38,0,50809
18060,4095,38,0,50819
18060,4095,38,0,50829
18060,4095,38,0,50839
18061,4095,38,0,50849
18061,3824,38,0,50859
18061,1233,38,0,50869
18061,2032,38,0,50879
18062,1873,38,0,50889
18062,1819,38,0,50899
18062,1872,38,0,50909
18062,1842,38,0,50919
18062,1835,38,0,50929
18063,1854,38,0,50939
18109,1835,38,0,50949
18109,1839,38,0,50959
18109,1840,38,0,50969
18110,1829,38,0,50979
18110,1842,38,0,50989
18165,1840,38,0,50999
18165,1506,38,0,51009
18166,670,38,0,51019
18166,1669,38,0,51029
18166,1168,38,0,51039
18261,655,38,0,51049
18262,2974,38,0,51059
18262,2107,38,0,51069
18262,1853,38,0,51079
18263,2468,38,0,51089
18263,3003,38,0,51099
18263,1476,38,0,51109
18263,4095,38,0,51119
18264,1680,38,0,51129
18264,3115,38,0,51139
18311,1279,38,0,51149
18311,3486,38,0,51159
18312,2427,38,0,51169
18312,1802,38,0,51179
18312,2225,38,0,51189
18470,1681,38,0,51199
18471,1040,38,0,51209
18471,2675,38,0,51219
18471,1034,38,0,51229
18471,1499,38,0,51239
18472,1204,38,0,51249
18472,561,38,0,51259
18472,800,38,0,51269
18473,1462,38,0,51279
18473,685,38,0,51289
18473,1262,38,0,51299
18473,743,38,0,51309
18474,465,38,0,51319
18474,1143,38,0,51329
18474,1823,38,0,51339
18880,2110,38,0,51349
18880,610,38,0,51359
18881,511,38,0,51369
18881,0,38,0,51379
18881,1185,38,0,51389
18882,1364,38,0,51399
18882,329,38,0,51409
18882,1117,38,0,51419
18882,879,38,0,51429
18883,0,38,0,51439
18883,955,38,0,51449
18883,0,38,0,51459
18883,0,38,0,51469
18884,0,38,0,51479
18884,0,38,0,51489
18884,0,38,0,51499
18884,0,38,0,51509
18885,0,38,0,51519
18885,0,38,0,51529
18885,0,38,0,51539
18885,0,38,0,51549
18940,0,38,0,51559
18941,0,38,0,51569
18941,0,38,0,51579
18941,0,38,0,51589
18941,0,38,0,51599
18942,0,38,0,51609
18942,0,38,0,51619
18942,0,38,0,51629
18942,0,38,0,51639
18943,0,38,0,51649
18943,0,38,0,51659
18943,0,38,0,51669
18943,0,38,0,51679
18944,0,38,0,51689
18944,0,38,0,51699
18944,0,38,0,51709
18944,0,38,0,51719
18945,0,38,0,51729
18945,0,38,0,51739
18945,0,38,0,51749
18945,0,38,0,51759
18946,0,38,0,51769
18946,0,38,0,51779
18946,0,38,0,51789
18946,0,38,0,51799
18947,490,38,0,51809
19178,643,38,0,51819
19179,368,38,0,51829
19179,1232,38,0,51839
19179,912,38,0,51849
19179,843,38,0,51859
19180,1473,38,0,51869
19180,1308,38,0,51879
19180,1331,38,0,51889
19180,1462,38,0,51899
19181,1713,38,0,51909
19181,1616,38,0,51919
19181,1614,38,0,51929
19181,1663,38,0,51939
19182,1842,38,0,51949
19182,2128,38,0,51959
19350,1854,38,0,51969
19350,2417,38,0,51979
19351,2401,38,0,51989
19351,2544,38,0,51999
19351,2522,38,0,52009
19351,2775,38,0,52019
19352,2720,38,0,52029
19352,2995,38,0,52039
19352,2892,38,0,52049
19352,3248,40,0,52059
19353,3582,40,0,52069
19353,4095,40,0,52079
19353,4095,40,0,52089
19354,4095,40,0,52099
19354,4095,40,0,52109
19354,3648,40,0,52119
19355,4095,40,0,52129
19355,4095,40,0,52139
19355,4095,40,0,52149
19355,4095,40,0,52159
19491,4095,40,0,52169
19491,4095,40,0,52179
19491,4095,40,0,52189
19492,4095,40,0,52199
19492,4095,40,0,52209
19492,4095,40,0,52219
19492,4095,40,0,52229
19493,4095,40,0,52239
19493,4095,40,0,52249
19493,4095,40,0,52259
19493,4095,40,0,52269
19494,4095,40,0,52279
19494,4095,40,0,52289
19494,4095,40,0,52299
19494,4095,40,0,52309
19494,4095,40,0,52319
19495,4095,40,0,52329
19495,4095,40,0,52339
19495,4095,40,0,52349
19495,4095,40,0,52359
19496,4095,40,0,52369
19537,4095,40,0,52379
19537,4095,40,0,52389
19537,4095,40,0,52399
19538,4095,40,0,52409
19538,4095,40,0,52419
19590,4095,40,0,52429
19590,4095,40,0,52439
19590,4095,40,0,52449
19591,4095,40,0,52459
19591,4095,40,0,52469
19696,4095,40,0,52479
19696,4095,40,0,52489
19696,4095,40,0,52499
19697,4095,40,0,52509
19697,4095,40,0,52519
19697,4095,40,0,52529
19698,4095,40,0,52539
19698,4095,40,0,52549
19698,4095,40,0,52559
19698,4095,40,0,52569
19901,4095,40,0,52579
19901,4095,40,0,52589
19901,4095,40,0,52599
19902,4095,40,0,52609
19902,4095,40,0,52619
19902,4095,40,0,52629
19903,4095,40,0,52639
19903,4095,40,0,52649
19903,4095,40,0,52659
19903,4095,40,0,52669
19903,4095,40,0,52679
19904,4095,40,0,52689
19904,4095,40,0,52699
19904,4095,40,0,52709
19904,4095,40,0,52719
19904,4095,40,0,52729
19905,4095,40,0,52739
19905,4095,40,0,52749
19905,4095,40,0,52759
19905,4095,40,0,52769
19906,4095,40,0,52779
19951,4095,40,0,52789
19951,4095,40,0,52799
19952,4095,40,0,52809
19952,4095,40,0,52819
19953,4095,40,0,52829
20105,4095,40,0,52839
20105,4095,40,0,52849
20106,4095,40,0,52859
20106,4095,40,0,52869
20106,4095,40,0,52879
20107,4095,40,0,52889
20107,4095,40,0,52899
20107,4095,40,0,52909
20107,4095,40,0,52919
20108,4095,40,0,52929
20108,4095,40,0,52939
20108,4095,40,0,52949
20108,4095,40,0,52959
20109,4095,40,0,52969
20109,4095,40,0,52979
20170,4095,40,0,52989
20171,4095,40,0,52999
20171,4095,40,0,53009
20171,4095,40,0,53019
20171,3451,40,0,53029
20172,3375,40,0,53039
20172,3440,40,0,53049
20310,2843,40,0,53059
20311,3156,40,0,53069
20311,2877,40,0,53079
20311,2781,40,0,53089
20311,2373,40,0,53099
20311,2181,40,0,53109
20312,2099,40,0,53119
20312,2019,40,0,53129
20312,1673,40,0,53139
20312,1719,40,0,53149
20313,1517,40,0,53159
20313,1571,40,0,53169
20313,1473,40,0,53179
20313,1586,40,0,53189
20515,1456,40,0,53199
20515,1489,40,0,53209
20515,1403,40,0,53219
20516,1809,40,0,53229
20516,1711,40,0,53239
20516,2958,40,0,53249
20516,4095,45,0,53259
20516,4095,45,0,53269
20517,4095,45,0,53279
20517,4095,45,0,53289
20517,4095,45,0,53299
20518,4095,45,0,53309
20518,4095,45,0,53319
20518,4095,45,0,53329
20518,4095,45,0,53339
20519,4095,45,0,53349
20519,4095,45,0,53359
20519,4095,45,0,53369
20519,4095,45,0,53379
20520,4095,45,0,53389
20567,4095,45,0,53399
20568,4095,45,0,53409
20568,4095,45,0,53419
20568,4095,45,0,53429
20569,4095,45,0,53439
20569,4095,45,0,53449
20618,4095,45,0,53459
20619,4095,45,0,53469
20619,4095,45,0,53479
20619,3650,45,0,53489
20620,3295,45,0,53499
20674,2977,45,0,53509
20674,3437,45,0,53519
20674,4095,45,0,53529
20675,4095,45,0,53539
20675,2023,45,0,53549
20924,1890,45,0,53559
20925,1968,45,0,53569
20925,1571,45,0,53579
20925,1661,45,0,53589
20926,1307,45,0,53599
20926,1252,45,0,53609
20926,905,45,0,53619
20926,1003,45,0,53629
20927,679,45,0,53639
20927,595,45,0,53649
20927,306,45,0,53659
20928,427,45,0,53669
20928,112,45,0,53679
20928,0,45,0,53689
20928,0,45,0,53699
20929,0,45,0,53709
20929,0,45,0,53719
20929,0,45,0,53729
20930,0,45,0,53739
20930,0,45,0,53749
20931,0,45,0,53759
20931,0,45,0,53769
20931,0,45,0,53779
20932,0,45,0,53789
20933,0,45,0,53799
20978,0,45,0,53809
20978,0,45,0,53819
20978,0,45,0,53829
20979,0,45,0,53839
20979,0,45,0,53849
20979,0,45,0,53859
21029,0,45,0,53869
21029,0,45,0,53879
21029,0,45,0,53889
21030,0,45,0,53899
21030,0,45,0,53909
21079,0,45,0,53919
21079,0,45,0,53929
21080,0,45,0,53939
21080,0,45,0,53949
21080,0,45,0,53959
21333,0,45,0,53969
21333,0,45,0,53979
21333,0,45,0,53989
21334,0,45,0,53999
21334,0,45,0,54009
21334,0,45,0,54019
21334,0,45,0,54029
21334,0,45,0,54039
21334,0,45,0,54049
21335,0,45,0,54059
21335,0,45,0,54069
21335,0,45,0,54079
21335,0,45,0,54089
21336,0,45,0,54099
21336,0,45,0,54109
21336,0,45,0,54119
21336,0,45,0,54129
21336,0,45,0,54139
21336,0,45,0,54149
21337,0,45,0,54159
21337,0,45,0,54169
21337,0,45,0,54179
21337,0,45,0,54189
21337,0,45,0,54199
21337,0,45,0,54209
21386,0,45,0,54219
21387,0,45,0,54229
21387,0,45,0,54239
21387,0,45,0,54249
21387,0,45,0,54259
21436,0,45,0,54269
21436,1011,45,0,54279
21436,0,45,0,54289
21437,0,45,0,54299
21437,0,45,0,54309
21486,0,45,0,54319
21487,0,45,0,54329
21487,0,45,0,54339
21487,0,45,0,54349
21488,0,45,0,54359
21848,0,45,0,54369
21849,0,45,0,54379
21849,0,45,0,54389
21849,0,45,0,54399
21849,0,45,0,54409
21850,0,45,0,54419
21850,0,45,0,54429
21850,0,45,0,54439
21850,0,45,0,54449
21850,0,45,0,54459
21850,0,45,0,54469
21851,0,45,0,54479
21851,0,45,0,54489
21851,0,45,0,54499
21851,0,45,0,54509
21851,0,45,0,54519
21851,0,45,0,54529
21852,0,45,0,54539
21852,0,45,0,54549
21852,0,45,0,54559
21852,0,45,0,54569
21852,0,45,0,54579
21853,0,45,0,54589
21853,0,45,0,54599
21853,0,45,0,54609
21853,0,45,0,54619
22047,0,45,0,54629
22047,0,45,0,54639
22048,0,45,0,54649
22048,0,45,0,54659
22048,0,45,0,54669
22048,0,45,0,54679
22048,0,45,0,54689
22049,0,45,0,54699
22049,0,45,0,54709
22049,0,45,0,54719
22049,0,45,0,54729
22049,0,45,0,54739
22049,0,45,0,54749
22050,0,45,0,54759
22050,128,45,0,54769
22050,44,45,0,54779
22050,93,45,0,54789
22050,277,45,0,54799
22050,353,45,0,54809
22050,325,45,0,54819
22051,313,45,0,54829
22156,400,45,0,54839
22157,541,45,0,54849
22157,370,45,0,54859
22157,447,45,0,54869
22157,541,45,0,54879
22157,497,45,0,54889
22157,336,45,0,54899
22158,443,45,0,54909
22158,185,45,0,54919
22158,235,45,0,54929
22158,0,45,0,54939
22158,0,45,0,54949
22158,0,45,0,54959
22158,0,45,0,54969
22159,0,45,0,54979
22159,0,45,0,54989
22159,0,45,0,54999
22159,158,45,0,55009
22159,845,45,0,55019
22159,1989,45,0,55029
22219,0,45,0,55039
22219,0,45,0,55049
22219,16,45,0,55059
22219,226,45,0,55069
22220,26,45,0,55079
22220,0,45,0,55089
22220,147,45,0,55099
22276,0,45,0,55109
22276,28,45,0,55119
22276,33,45,0,55129
22277,0,45,0,55139
22277,169,45,0,55149
22455,142,45,0,55159
22455,103,45,0,55169
22456,176,45,0,55179
22456,291,45,0,55189
22456,0,45,0,55199
22456,96,45,0,55209
22456,94,45,0,55219
22457,64,45,0,55229
22457,190,45,0,55239
22587,80,45,0,55249
22588,219,45,0,55259
22588,215,45,0,55269
22588,148,45,0,55279
22588,464,45,0,55289
22588,290,45,0,55299
22588,123,45,0,55309
22589,218,45,0,55319
22589,160,45,0,55329
22589,44,45,0,55339
22589,219,45,0,55349
22589,203,45,0,55359
22589,333,45,0,55369
22590,298,45,0,55379
22590,422,45,0,55389
22590,395,45,0,55399
22590,594,45,0,55409
22590,459,45,0,55419
22590,695,45,0,55429
22590,706,45,0,55439
22591,949,45,0,55449
22591,806,45,0,55459
22591,1043,45,0,55469
22865,1118,45,0,55479
22865,1079,45,0,55489
22865,1266,45,0,55499
22865,1249,45,0,55509
22866,1104,45,0,55519
22866,1350,45,0,55529
22866,1251,45,0,55539
22866,1088,45,0,55549
22866,1136,45,0,55559
22866,1279,45,0,55569
22866,1270,45,0,55579
22867,1200,45,0,55589
22867,1565,45,0,55599
22867,1235,45,0,55609
22867,1442,45,0,55619
22867,1519,45,0,55629
22867,1359,45,0,55639
23070,1429,45,0,55649
23070,1615,45,0,55659
23070,1584,45,0,55669
23070,1583,45,0,55679
23071,1648,45,0,55689
23071,1600,45,0,55699
23071,1831,45,0,55709
23071,1535,45,0,55719
23071,1578,45,0,55729
23072,1862,45,0,55739
23072,2206,45,0,55749
23072,3473,36,0,55759
23072,3165,36,0,55769
23072,1091,36,0,55779
23073,1915,36,0,55789
23073,1681,36,0,55799
23073,1886,36,0,55809
23073,1843,36,0,55819
23073,1914,36,0,55829
23073,1664,36,0,55839
23073,1841,36,0,55849
23275,1998,36,0,55859
23275,2000,36,0,55869
23275,1865,36,0,55879
23275,1946,36,0,55889
23276,1973,36,0,55899
23276,1907,36,0,55909
23276,1904,36,0,55919
23276,1813,36,0,55929
23276,1814,36,0,55939
23276,2033,36,0,55949
23276,1711,36,0,55959
23277,1937,36,0,55969
23277,1929,36,0,55979
23277,1903,36,0,55989
23277,2093,36,0,55999
23277,1872,36,0,56009
23277,2133,36,0,56019
23278,2067,36,0,56029
23278,1920,36,0,56039
23278,2029,36,0,56049
23479,1925,36,0,56059
23479,2112,36,0,56069
23480,1949,36,0,56079
23480,2097,36,0,56089
23480,2017,36,0,56099
23480,2271,36,0,56109
23481,2219,36,0,56119
23481,2192,36,0,56129
23481,1990,36,0,56139
23481,1999,36,0,56149
23481,2269,36,0,56159
23482,2181,36,0,56169
23482,2031,36,0,56179
23482,2267,36,0,56189
23482,2284,36,0,56199
23482,2242,36,0,56209
23482,2291,36,0,56219
23482,2297,36,0,56229
23483,2433,36,0,56239
23483,2224,36,0,56249
23483,2321,36,0,56259
23684,2442,36,0,56269
23684,2423,36,0,56279
23684,2477,36,0,56289
23685,2485,36,0,56299
23685,2465,36,0,56309
23685,2606,36,0,56319
23685,2655,36,0,56329
23685,2398,36,0,56339
23685,2535,36,0,56349
23686,2524,36,0,56359
23686,2547,36,0,56369
23686,2602,36,0,56379
23686,2505,36,0,56389
23686,2551,36,0,56399
23686,2452,36,0,56409
23687,2502,36,0,56419
23687,2419,36,0,56429
23687,2473,36,0,56439
23687,2625,36,0,56449
23687,2385,36,0,56459
23889,2650,36,0,56469
23890,2541,36,0,56479
23890,2641,36,0,56489
23890,3107,48,0,56499
23891,4072,48,0,56509
23891,4095,48,0,56519
23891,2887,48,0,56529
23891,2014,48,0,56539
23892,2686,48,0,56549
23892,2608,48,0,56559
23892,2624,48,0,56569
23892,2653,48,0,56579
23893,2682,48,0,56589
23893,2737,48,0,56599
23893,2701,48,0,56609
23893,2866,48,0,56619
23894,2701,48,0,56629
23894,2801,48,0,56639
23894,2960,48,0,56649
23894,2904,48,0,56659
23895,3084,48,0,56669
24053,3156,48,0,56679
24053,3710,48,0,56689
24053,3550,48,0,56699
24053,3639,48,0,56709
24054,3841,48,0,56719
24054,4095,48,0,56729
24054,4095,48,0,56739
24054,4095,48,0,56749
24055,4095,48,0,56759
24055,4095,48,0,56769
24056,4095,48,0,56779
24056,4095,48,0,56789
24056,4095,48,0,56799
24057,4095,48,0,56809
24057,4095,48,0,56819
24057,4095,48,0,56829
24058,4095,48,0,56839
24058,4095,48,0,56849
24058,3951,48,0,56859
24058,3793,48,0,56869
24298,3997,48,0,56879
24299,3875,48,0,56889
24299,3899,48,0,56899
24299,3842,48,0,56909
24300,3655,48,0,56919
24300,3582,48,0,56929
24300,3604,48,0,56939
24300,3093,48,0,56949
24301,3202,48,0,56959
24301,3197,48,0,56969
24301,2707,48,0,56979
24301,3203,48,0,56989
24302,2707,48,0,56999
24302,2923,48,0,57009
24302,2833,48,0,57019
24302,2588,48,0,57029
24303,2557,48,0,57039
24303,2659,48,0,57049
24303,2497,48,0,57059
24303,2508,48,0,57069
24304,2533,48,0,57079
24503,2487,48,0,57089
24504,2523,48,0,57099
24504,2432,48,0,57109
24505,2498,48,0,57119
24505,2640,48,0,57129
24505,2534,48,0,57139
24505,2320,48,0,57149
24505,2256,48,0,57159
24506,2146,48,0,57169
24506,2106,48,0,57179
24506,2059,48,0,57189
24507,2021,48,0,57199
24507,1957,48,0,57209
24507,2018,48,0,57219
24508,1799,48,0,57229
24508,1946,48,0,57239
24508,1792,48,0,57249
24508,2021,48,0,57259
24509,1866,48,0,57269
24509,1825,48,0,57279
24708,2645,48,0,57289
24708,3696,55,0,57299
24709,2969,55,0,57309
24709,1193,55,0,57319
24709,1819,55,0,57329
24709,2055,55,0,57339
24709,1611,55,0,57349
24710,1822,55,0,57359
24710,1565,55,0,57369
24710,1535,55,0,57379
24710,1648,55,0,57389
24711,1412,55,0,57399
24711,1572,55,0,57409
24711,1563,55,0,57419
24711,1488,55,0,57429
24712,1497,55,0,57439
24712,1636,55,0,57449
24712,1255,55,0,57459
24712,1585,55,0,57469
24712,1526,55,0,57479
24713,1553,55,0,57489
24913,1772,55,0,57499
24913,1612,55,0,57509
24914,1647,55,0,57519
24914,1716,55,0,57529
24914,1710,55,0,57539
24914,1714,55,0,57549
24915,1787,55,0,57559
24915,1455,55,0,57569
24915,1493,55,0,57579
24915,1261,55,0,57589
24916,1374,55,0,57599
24916,1198,55,0,57609
24916,1207,55,0,57619
24916,1209,55,0,57629
24917,1227,55,0,57639
24917,1031,55,0,57649
24917,1156,55,0,57659
24917,1185,55,0,57669
24918,1088,55,0,57679
24918,1200,55,0,57689
25118,1334,55,0,57699
25118,1358,55,0,57709
25119,1280,55,0,57719
25119,1401,55,0,57729
25119,1321,55,0,57739
25119,1295,55,0,57749
25120,1393,55,0,57759
25120,1334,55,0,57769
25120,1436,55,0,57779
25120,1271,55,0,57789
25121,1410,55,0,57799
25121,1264,55,0,57809
25121,1398,55,0,57819
25121,1398,55,0,57829
25121,1370,55,0,57839
25122,1362,55,0,57849
25122,1344,55,0,57859
25122,1388,55,0,57869
25123,1404,55,0,57879
25123,1311,55,0,57889
25123,1487,55,0,57899
25322,1467,55,0,57909
25323,1725,55,0,57919
25323,1712,55,0,57929
25323,1681,55,0,57939
25324,1625,55,0,57949
25324,1744,55,0,57959
25324,1566,55,0,57969
25324,1472,55,0,57979
25325,1535,55,0,57989
25325,1596,55,0,57999
25325,1535,55,0,58009
25326,1587,55,0,58019
25326,1606,55,0,58029
25326,1655,55,0,58039
25326,1683,55,0,58049
25327,1664,55,0,58059
25327,2182,55,0,58069
25327,2896,55,0,58079
25327,3495,61,0,58089
25327,1348,61,0,58099
25527,1535,61,0,58109
25528,2038,61,0,58119
25528,1781,61,0,58129
25529,1873,61,0,58139
25529,1773,61,0,58149
25529,1755,61,0,58159
25529,1975,61,0,58169
25530,1787,61,0,58179
25530,1530,61,0,58189
25530,1989,61,0,58199
25530,1711,61,0,58209
25531,1882,61,0,58219
25531,1662,61,0,58229
25531,1861,61,0,58239
25532,1851,61,0,58249
25532,1856,61,0,58259
25532,1830,61,0,58269
25533,2108,61,0,58279
25534,1858,61,0,58289
25534,1732,61,0,58299
25535,1939,61,0,58309
25732,2132,61,0,58319
25732,1968,61,0,58329
25733,2010,61,0,58339
25733,2448,61,0,58349
25733,2106,61,0,58359
25733,2025,61,0,58369
25734,2273,61,0,58379
25734,1715,61,0,58389
25734,2139,61,0,58399
25735,2000,61,0,58409
25735,2000,61,0,58419
25735,2012,61,0,58429
25736,2320,61,0,58439
25736,2250,61,0,58449
25736,2225,61,0,58459
25736,2510,61,0,58469
25737,2497,61,0,58479
25737,2416,61,0,58489
25737,2496,61,0,58499
25738,2606,61,0,58509
25937,2607,61,0,58519
25937,2781,61,0,58529
25938,2719,61,0,58539
25938,2987,61,0,58549
25938,2861,61,0,58559
25938,2983,61,0,58569
25938,3149,61,0,58579
25939,2822,61,0,58589
25939,2992,61,0,58599
25939,2946,61,0,58609
25939,2859,61,0,58619
25940,3280,61,0,58629
25940,3295,61,0,58639
25940,3019,61,0,58649
25940,3811,61,0,58659
25940,3640,61,0,58669
25941,3298,61,0,58679
25941,4095,61,0,58689
25941,4095,61,0,58699
25941,4095,61,0,58709
25942,4095,61,0,58719
26052,4095,61,0,58729
26052,4095,61,0,58739
26053,4095,61,0,58749
26053,4095,61,0,58759
26053,4095,61,0,58769
26053,4095,61,0,58779
26053,4095,61,0,58789
26054,4095,61,0,58799
26054,4095,61,0,58809
26054,4095,61,0,58819
26055,4095,61,0,58829
26055,4095,61,0,58839
26056,4095,61,0,58849
26056,4095,61,0,58859
26056,4095,61,0,58869
26056,4095,61,0,58879
26057,4095,61,0,58889
26057,4095,61,0,58899
26057,4095,61,0,58909
26058,4095,61,0,58919
26346,4095,61,0,58929
26347,4095,61,0,58939
26347,4095,61,0,58949
26347,4095,61,0,58959
26348,4095,61,0,58969
26348,4095,61,0,58979
26348,4095,61,0,58989
26348,4095,61,0,58999
26348,4095,61,0,59009
26349,4095,61,0,59019
26349,4095,61,0,59029
26349,4095,61,0,59039
26349,4095,61,0,59049
26350,3440,61,0,59059
26350,3451,61,0,59069
26350,3705,61,0,59079
26350,2922,61,0,59089
26351,3062,61,0,59099
26351,2677,61,0,59109
26351,2459,61,0,59119
26351,2481,61,0,59129
26551,2239,61,0,59139
26552,2308,61,0,59149
26552,2237,61,0,59159
26552,1888,61,0,59169
26552,1962,61,0,59179
26553,1818,61,0,59189
26553,1691,61,0,59199
26553,1394,61,0,59209
26553,1502,61,0,59219
26554,1365,61,0,59229
26554,1280,61,0,59239
26554,1253,61,0,59249
26554,1088,61,0,59259
26555,1037,61,0,59269
26555,1089,61,0,59279
26555,1120,61,0,59289
26555,937,61,0,59299
26555,1153,61,0,59309
26556,847,61,0,59319
26556,1157,61,0,59329
26556,951,61,0,59339
26756,987,61,0,59349
26756,953,61,0,59359
26757,987,61,0,59369
26757,944,61,0,59379
26757,880,61,0,59389
26758,847,61,0,59399
26758,893,61,0,59409
26758,706,61,0,59419
26758,539,61,0,59429
26759,589,61,0,59439
26759,656,61,0,59449
26759,369,61,0,59459
26760,570,61,0,59469
26760,571,61,0,59479
26760,473,61,0,59489
26760,591,61,0,59499
26761,475,61,0,59509
26761,403,61,0,59519
26761,768,61,0,59529
26762,1774,61,0,59539
26961,2559,61,0,59549
26962,286,61,0,59559
26962,432,61,0,59569
26962,550,61,0,59579
26963,618,61,0,59589
26963,317,61,0,59599
26963,558,61,0,59609
26964,277,61,0,59619
26964,346,61,0,59629
26964,323,61,0,59639
26964,336,61,0,59649
26964,252,61,0,59659
26965,395,61,0,59669
26965,314,61,0,59679
26965,400,61,0,59689
26965,466,61,0,59699
26966,303,61,0,59709
26966,331,61,0,59719
26966,526,61,0,59729
26966,324,61,0,59739
27166,510,61,0,59749
27166,655,61,0,59759
27166,391,61,0,59769
27166,621,61,0,59779
27167,592,61,0,59789
27167,401,61,0,59799
27167,687,61,0,59809
27167,342,61,0,59819
27167,301,61,0,59829
27168,257,61,0,59839
27168,222,61,0,59849
27168,0,61,0,59859
27168,267,61,0,59869
27168,0,61,0,59879
27169,207,61,0,59889
27169,117,61,0,59899
27169,153,61,0,59909
27169,195,61,0,59919
27169,173,61,0,59929
27170,238,61,0,59939
27170,287,61,0,59949
27371,400,61,0,59959
27371,416,61,0,59969
27371,226,61,0,59979
27372,665,61,0,59989
27372,242,61,0,59999
27372,381,61,0,60009
27372,368,61,0,60019
27373,93,61,0,60029
27373,373,61,0,60039
27373,195,61,0,60049
27373,597,61,0,60059
27374,321,61,0,60069
27374,365,61,0,60079
27374,498,61,0,60089
27374,387,61,0,60099
27374,224,61,0,60109
27375,336,61,0,60119
27375,352,61,0,60129
27375,291,61,0,60139
27375,306,61,0,60149
27575,402,61,0,60159
27576,318,61,0,60169
27576,464,61,0,60179
27576,272,61,0,60189
27577,370,61,0,60199
27577,488,61,0,60209
27578,415,61,0,60219
27578,343,61,0,60229
27578,359,61,0,60239
27579,397,61,0,60249
27579,1108,61,0,60259
27579,1786,61,0,60269
27580,1747,61,0,60279
27580,0,61,0,60289
27580,364,61,0,60299
27581,358,61,0,60309
27581,597,61,0,60319
27582,400,61,0,60329
27582,442,61,0,60339
27582,492,61,0,60349
27583,675,61,0,60359
27780,701,61,0,60369
27780,811,61,0,60379
27781,630,61,0,60389
27781,1023,61,0,60399
27781,701,61,0,60409
27781,873,61,0,60419
27782,944,61,0,60429
27782,610,61,0,60439
27782,899,61,0,60449
27782,789,61,0,60459
27783,861,61,0,60469
27783,964,61,0,60479
27783,1010,61,0,60489
27783,960,61,0,60499
27783,902,61,0,60509
27784,1072,61,0,60519
27784,958,61,0,60529
27784,1110,61,0,60539
27784,913,61,0,60549
27785,914,61,0,60559
27785,903,61,0,60569
27785,971,61,0,60579
27985,951,61,0,60589
27985,884,61,0,60599
27986,841,61,0,60609
27986,1064,61,0,60619
27986,920,61,0,60629
27986,947,61,0,60639
27987,1223,61,0,60649
27987,727,61,0,60659
27987,926,61,0,60669
27987,954,61,0,60679
27987,941,61,0,60689
27988,922,61,0,60699
27988,896,61,0,60709
27988,958,61,0,60719
27988,959,61,0,60729
27989,895,61,0,60739
27989,983,61,0,60749
27989,935,61,0,60759
28160,1124,61,0,60769
28161,1008,61,0,60779
28161,1175,61,0,60789
28162,1126,61,0,60799
28162,1182,61,0,60809
28162,1259,61,0,60819
28162,1109,61,0,60829
28163,1183,61,0,60839
28163,1079,61,0,60849
28163,1070,61,0,60859
28163,987,61,0,60869
28164,1107,61,0,60879
28164,1034,61,0,60889
28164,1075,61,0,60899
28164,1062,61,0,60909
28165,1009,61,0,60919
28165,951,61,0,60929
28165,1013,61,0,60939
28165,1083,61,0,60949
28166,1161,61,0,60959
28166,986,61,0,60969
28395,1360,61,0,60979
28395,1147,61,0,60989
28396,1494,61,0,60999
28396,2233,61,0,61009
28396,3286,55,0,61019
28397,1507,55,0,61029
28397,815,55,0,61039
28397,1370,55,0,61049
28397,1104,55,0,61059
28398,1211,55,0,61069
28398,1111,55,0,61079
28398,1147,55,0,61089
28398,1371,55,0,61099
28399,1055,55,0,61109
28399,1264,55,0,61119
28399,1178,55,0,61129
28399,1270,55,0,61139
28399,1242,55,0,61149
28400,1296,55,0,61159
28400,1278,55,0,61169
28599,1236,55,0,61179
28600,1485,55,0,61189
28600,1342,55,0,61199
28600,1587,55,0,61209
28600,1462,55,0,61219
28601,1522,55,0,61229
28601,1504,55,0,61239
28601,1455,55,0,61249
28601,1501,55,0,61259
28602,1366,55,0,61269
28602,1535,55,0,61279
28602,1347,55,0,61289
28602,1352,55,0,61299
28602,1134,55,0,61309
28603,1399,55,0,61319
28603,1008,55,0,61329
28603,1110,55,0,61339
28603,1163,55,0,61349
28604,1145,55,0,61359
28604,1107,55,0,61369
28604,1143,55,0,61379
28804,1375,55,0,61389
28805,1424,55,0,61399
28805,1430,55,0,61409
28805,1297,55,0,61419
28806,1466,55,0,61429
28806,1356,55,0,61439
28806,1422,55,0,61449
28806,1287,55,0,61459
28806,1302,55,0,61469
28807,1264,55,0,61479
28807,1109,55,0,61489
28807,1408,55,0,61499
28807,1328,55,0,61509
28808,1152,55,0,61519
28808,1383,55,0,61529
28808,1194,55,0,61539
28808,1258,55,0,61549
28808,1397,55,0,61559
28809,1093,55,0,61569
28809,1388,55,0,61579
29009,1469,55,0,61589
29010,1429,55,0,61599
29010,1456,55,0,61609
29010,1387,55,0,61619
29010,1568,55,0,61629
29011,1521,55,0,61639
29011,1514,55,0,61649
29011,1360,55,0,61659
29012,1517,55,0,61669
29012,1290,55,0,61679
29012,1358,55,0,61689
29014,1439,55,0,61699
29014,1261,55,0,61709
29016,1158,55,0,61719
29017,1377,55,0,61729
29017,1235,55,0,61739
29018,1365,55,0,61749
29018,1339,55,0,61759
29019,1483,55,0,61769
29019,1360,55,0,61779
29019,1853,55,0,61789
29214,2625,55,0,61799
29223,3710,65,0,61809
29223,1215,65,0,61819
29224,1427,65,0,61829
29224,1779,65,0,61839
29224,1616,65,0,61849
29225,1877,65,0,61859
29225,1507,65,0,61869
29225,1616,65,0,61879
29225,1660,65,0,61889
29225,1678,65,0,61899
29226,1701,65,0,61909
29226,1795,65,0,61919
29226,1847,65,0,61929
29226,1790,65,0,61939
29227,1789,65,0,61949
29227,1921,65,0,61959
29227,1872,65,0,61969
29227,2109,65,0,61979
29228,2062,65,0,61989
29396,2236,65,0,61999
29397,2294,65,0,62009
29397,2245,65,0,62019
29398,2381,65,0,62029
29398,2450,65,0,62039
29398,2549,65,0,62049
29398,2541,65,0,62059
29399,2559,65,0,62069
29399,2304,65,0,62079
29399,2310,65,0,62089
29400,2298,65,0,62099
29400,2230,65,0,62109
29400,2448,65,0,62119
29400,2194,65,0,62129
29400,2414,65,0,62139
29401,2230,65,0,62149
29401,2480,65,0,62159
29401,2521,65,0,62169
29401,2352,65,0,62179
29401,2626,65,0,62189
29402,2629,65,0,62199
29623,2644,65,0,62209
29624,2960,65,0,62219
29624,2730,65,0,62229
29625,2855,65,0,62239
29625,2917,65,0,62249
29625,2797,65,0,62259
29625,3023,65,0,62269
29626,2732,65,0,62279
29626,2768,65,0,62289
29626,3071,65,0,62299
29626,2853,65,0,62309
29626,2983,65,0,62319
29627,2931,65,0,62329
29627,2913,65,0,62339
29627,2997,65,0,62349
29627,2963,65,0,62359
29628,3234,65,0,62369
29628,3237,65,0,62379
29628,3118,65,0,62389
29629,3339,65,0,62399
29828,3376,65,0,62409
29828,3513,65,0,62419
29829,3543,65,0,62429
29829,3500,65,0,62439
29829,3527,65,0,62449
29829,3561,65,0,62459
29830,3397,65,0,62469
29830,3319,65,0,62479
29830,3431,65,0,62489
29831,3197,65,0,62499
29831,3395,65,0,62509
29831,3327,65,0,62519
29831,3184,65,0,62529
29832,3382,65,0,62539
29832,4095,65,0,62549
29832,4095,65,0,62559
29832,4095,65,0,62569
29833,4095,65,0,62579
29833,3003,65,0,62589
29833,3035,65,0,62599
29833,3325,65,0,62609
30033,3549,65,0,62619
30033,3287,65,0,62629
30033,3233,65,0,62639
30034,3440,65,0,62649
30034,3303,65,0,62659
30034,3056,65,0,62669
30034,3295,65,0,62679
30035,2832,65,0,62689
30035,3139,65,0,62699
30035,3045,65,0,62709
30035,2906,65,0,62719
30036,2880,65,0,62729
30036,2818,65,0,62739
30036,2850,65,0,62749
30036,2794,65,0,62759
30036,2861,65,0,62769
30037,2688,65,0,62779
30037,2894,65,0,62789
30037,2640,65,0,62799
30037,2786,65,0,62809
30164,2731,65,0,62819
30164,2819,65,0,62829
30165,2823,65,0,62839
30165,2501,65,0,62849
30165,2405,65,0,62859
30166,2491,65,0,62869
30166,2205,65,0,62879
30166,2293,65,0,62889
30166,2095,65,0,62899
30167,2008,65,0,62909
30167,2038,65,0,62919
30167,1973,65,0,62929
30167,1930,65,0,62939
30168,1935,65,0,62949
30168,1876,65,0,62959
30168,1890,65,0,62969
30168,1775,65,0,62979
30169,1725,65,0,62989
30169,1813,65,0,62999
30169,1420,65,0,63009
30169,1920,65,0,63019
30443,1723,65,0,63029
30443,1680,65,0,63039
30444,1746,65,0,63049
30444,1535,65,0,63059
30444,1653,65,0,63069
30444,1586,65,0,63079
30444,1526,65,0,63089
30445,1520,65,0,63099
30445,1335,65,0,63109
30445,1377,65,0,63119
30445,1392,65,0,63129
30446,1281,65,0,63139
30446,1311,65,0,63149
30446,1270,65,0,63159
30446,1135,65,0,63169
30447,1250,65,0,63179
30447,1015,65,0,63189
30447,988,65,0,63199
30447,1115,65,0,63209
30448,1023,65,0,63219
30647,1009,65,0,63229
30648,1311,65,0,63239
30648,1083,65,0,63249
30648,1124,65,0,63259
30648,1093,65,0,63269
30649,1015,65,0,63279
30649,1266,65,0,63289
30649,1865,65,0,63299
30649,2790,65,0,63309
30650,1093,65,0,63319
30650,442,65,0,63329
30650,919,65,0,63339
30650,698,65,0,63349
30651,855,65,0,63359
30651,673,65,0,63369
30651,745,65,0,63379
30651,713,65,0,63389
30652,537,65,0,63399
30652,927,65,0,63409
30652,554,65,0,63419
30652,682,65,0,63429
30853,945,65,0,63439
30853,662,65,0,63449
30853,906,65,0,63459
30854,735,65,0,63469
30854,871,65,0,63479
30854,723,65,0,63489
30854,704,65,0,63499
30855,671,65,0,63509
30855,845,65,0,63519
30855,607,65,0,63529
30855,759,65,0,63539
30855,918,65,0,63549
30856,698,65,0,63559
30856,720,65,0,63569
30856,823,65,0,63579
30856,624,65,0,63589
30856,614,65,0,63599
30857,534,65,0,63609
30857,618,65,0,63619
30857,448,65,0,63629
31057,663,65,0,63639
31057,592,65,0,63649
31058,799,65,0,63659
31058,738,65,0,63669
31058,649,65,0,63679
31058,623,65,0,63689
31059,759,65,0,63699
31059,539,65,0,63709
31059,531,65,0,63719
31059,638,65,0,63729
31060,539,65,0,63739
31060,526,65,0,63749
31060,557,65,0,63759
31060,494,65,0,63769
31060,503,65,0,63779
31061,492,65,0,63789
31061,505,65,0,63799
31061,567,65,0,63809
31061,544,65,0,63819
31062,410,65,0,63829
31062,584,65,0,63839
31262,726,65,0,63849
31262,653,65,0,63859
31263,750,65,0,63869
31263,563,65,0,63879
31263,581,65,0,63889
31264,752,65,0,63899
31264,765,65,0,63909
31264,529,65,0,63919
31264,417,65,0,63929
31264,630,65,0,63939
31265,610,65,0,63949
31265,425,65,0,63959
31265,637,65,0,63969
31265,460,65,0,63979
31265,416,65,0,63989
31266,599,65,0,63999
31266,511,65,0,64009
31266,576,65,0,64019
31266,550,65,0,64029
31267,601,65,0,64039
31467,535,65,0,64049
31467,1023,65,0,64059
31467,1588,65,0,64069
31468,2529,65,0,64079
31468,1424,65,0,64089
31468,207,65,0,64099
31468,848,65,0,64109
31469,687,65,0,64119
31469,702,65,0,64129
31469,626,65,0,64139
31469,575,65,0,64149
31470,795,65,0,64159
31470,614,65,0,64169
31470,762,65,0,64179
31470,706,65,0,64189
31470,891,65,0,64199
31471,846,65,0,64209
31471,802,65,0,64219
31471,863,65,0,64229
31471,976,65,0,64239
31471,863,65,0,64249
31671,1328,65,0,64259
31672,1097,65,0,64269
31672,1182,65,0,64279
31672,1118,65,0,64289
31673,1280,65,0,64299
31673,1273,65,0,64309
31673,1298,65,0,64319
31673,1036,65,0,64329
31673,1265,65,0,64339
31674,988,65,0,64349
31674,1072,65,0,64359
31674,1121,65,0,64369
31674,718,65,0,64379
31675,948,65,0,64389
31675,866,65,0,64399
31675,958,65,0,64409
31675,750,65,0,64419
31676,947,65,0,64429
31676,832,65,0,64439
31676,1013,65,0,64449
31876,1190,65,0,64459
31877,1061,65,0,64469
31877,1141,65,0,64479
31877,1216,65,0,64489
31877,1088,65,0,64499
31877,1150,65,0,64509
31878,1175,65,0,64519
31878,1138,65,0,64529
31878,1038,65,0,64539
31878,869,65,0,64549
31879,1037,65,0,64559
31879,1058,65,0,64569
31879,1172,65,0,64579
31879,931,65,0,64589
31879,893,65,0,64599
31880,1214,65,0,64609
31880,1045,65,0,64619
31880,1123,65,0,64629
31880,1131,65,0,64639
31881,1015,65,0,64649
31881,843,65,0,64659
32048,1357,65,0,64669
32049,1156,65,0,64679
32049,998,65,0,64689
32049,1322,65,0,64699
32049,1157,65,0,64709
32050,759,65,0,64719
32050,1597,65,0,64729
32050,803,65,0,64739
32050,1023,65,0,64749
32051,365,65,0,64759
32051,901,65,0,64769
32051,720,65,0,64779
32052,763,65,0,64789
32052,850,65,0,64799
32052,732,65,0,64809
32053,981,65,0,64819
32053,304,65,0,64829
32053,738,65,0,64839
32053,1168,65,0,64849
32054,1227,65,0,64859
32191,2385,65,0,64869
32191,2173,65,0,64879
32192,0,65,0,64889
32192,689,65,0,64899
32192,794,65,0,64909
32192,637,65,0,64919
32192,639,65,0,64929
32193,531,65,0,64939
32193,399,65,0,64949
32193,470,65,0,64959
32193,326,65,0,64969
32194,560,65,0,64979
32194,144,65,0,64989
32194,99,65,0,64999
32194,320,65,0,65009
32194,185,65,0,65019
32195,20,65,0,65029
32195,218,65,0,65039
32195,430,65,0,65049
32195,55,65,0,65059
32195,387,65,0,65069
32491,560,65,0,65079
32491,501,65,0,65089
32491,581,65,0,65099
32491,427,65,0,65109
32492,635,65,0,65119
32492,506,65,0,65129
32492,482,65,0,65139
32492,130,65,0,65149
32493,249,65,0,65159
32493,0,65,0,65169
32493,321,65,0,65179
32494,0,65,0,65189
32494,226,65,0,65199
32494,147,65,0,65209
32494,329,65,0,65219
32494,236,65,0,65229
32495,416,65,0,65239
32495,480,65,0,65249
32495,371,65,0,65259
32495,701,65,0,65269
32695,567,65,0,65279
32696,799,65,0,65289
32696,804,65,0,65299
32696,816,65,0,65309
32697,1142,65,0,65319
32697,727,65,0,65329
32697,1072,65,0,65339
32697,987,65,0,65349
32698,887,65,0,65359
32698,887,65,0,65369
32698,999,65,0,65379
32698,949,65,0,65389
32699,799,65,0,65399
32699,1104,65,0,65409
32699,933,65,0,65419
32699,1090,65,0,65429
32700,1065,65,0,65439
32700,1001,65,0,65449
32700,976,65,0,65459
32700,1008,65,0,65469
32900,1127,65,0,65479
32901,1360,65,0,65489
32901,1329,65,0,65499
32901,1472,65,0,65509
32901,1092,65,0,65519
32902,1535,65,0,65529
32902,1269,65,0,65539
32903,1435,65,0,65549
32903,976,65,0,65559
32903,1261,65,0,65569
32904,1006,65,0,65579
32904,1211,65,0,65589
32904,1171,65,0,65599
32904,1392,65,0,65609
32905,1134,65,0,65619
32905,1322,65,0,65629
32905,1086,65,0,65639
32905,1518,65,0,65649
32906,2362,65,0,65659
32906,3209,52,0,65669
32906,1741,52,0,65679
33105,922,52,0,65689
33105,1717,52,0,65699
33106,1696,52,0,65709
33106,1610,52,0,65719
33106,1673,52,0,65729
33106,1566,52,0,65739
33107,1710,52,0,65749
33107,1588,52,0,65759
33107,1453,52,0,65769
33107,1745,52,0,65779
33108,1683,52,0,65789
33108,1581,52,0,65799
33108,1739,52,0,65809
33109,1907,52,0,65819
33109,1779,52,0,65829
33109,1777,52,0,65839
33109,2128,52,0,65849
33109,2030,52,0,65859
33110,1966,52,0,65869
33110,2069,52,0,65879
33310,2320,52,0,65889
33312,2304,52,0,65899
33313,2543,52,0,65909
33313,2423,52,0,65919
33313,2589,52,0,65929
33313,2426,52,0,65939
33314,2301,52,0,65949
33314,1988,52,0,65959
33314,2134,52,0,65969
33315,1879,52,0,65979
33315,1789,52,0,65989
33315,1971,52,0,65999
33315,1696,52,0,66009
33316,1855,52,0,66019
33316,1907,52,0,66029
33316,1757,52,0,66039
33316,1776,52,0,66049
33317,1900,52,0,66059
33317,1685,52,0,66069
33317,2022,52,0,66079
33318,1781,52,0,66089
33515,1860,52,0,66099
33515,2147,52,0,66109
33515,1890,52,0,66119
33516,1903,52,0,66129
33516,1863,52,0,66139
33516,2030,52,0,66149
33516,1594,52,0,66159
33517,1811,52,0,66169
33517,1927,52,0,66179
33517,1626,52,0,66189
33517,1936,52,0,66199
33518,1834,52,0,66209
33518,1890,52,0,66219
33518,1511,52,0,66229
33518,1775,52,0,66239
33519,1945,52,0,66249
33519,1895,52,0,66259
33520,1777,52,0,66269
33520,2150,52,0,66279
33521,1824,52,0,66289
33719,2113,52,0,66299
33720,2243,52,0,66309
33720,2047,52,0,66319
33721,2055,52,0,66329
33721,2256,52,0,66339
33721,2069,52,0,66349
33721,2133,52,0,66359
33722,2047,52,0,66369
33722,2045,52,0,66379
33722,2145,52,0,66389
33722,2106,52,0,66399
33723,2012,52,0,66409
33723,2096,52,0,66419
33723,2838,52,0,66429
33723,4095,53,0,66439
33723,2727,53,0,66449
33724,1812,53,0,66459
33724,2112,53,0,66469
33724,2134,53,0,66479
33724,2084,53,0,66489
33724,2094,53,0,66499
33924,2211,53,0,66509
33925,2366,53,0,66519
33925,2401,53,0,66529
33925,2208,53,0,66539
33925,2290,53,0,66549
33926,2291,53,0,66559
33926,2487,53,0,66569
33926,2055,53,0,66579
33926,2367,53,0,66589
33926,2215,53,0,66599
33927,2133,53,0,66609
33927,2396,53,0,66619
33927,2416,53,0,66629
33927,2405,53,0,66639
33927,2351,53,0,66649
33928,2602,53,0,66659
33928,2559,53,0,66669
33928,2619,53,0,66679
33928,2621,53,0,66689
33928,2821,53,0,66699
34054,2801,53,0,66709
34055,3038,53,0,66719
34055,2637,53,0,66729
34055,2880,53,0,66739
34055,3118,53,0,66749
34056,2663,53,0,66759
34056,3197,53,0,66769
34056,3390,53,0,66779
34056,2801,53,0,66789
34056,2925,53,0,66799
34057,2832,53,0,66809
34057,2825,53,0,66819
34057,3027,53,0,66829
34057,3167,53,0,66839
34057,3014,53,0,66849
34058,3071,53,0,66859
34058,3343,53,0,66869
34058,2966,53,0,66879
34058,3105,53,0,66889
34058,3532,53,0,66899
34059,3180,53,0,66909
34334,3577,53,0,66919
34335,3434,53,0,66929
34335,3727,53,0,66939
34335,3610,53,0,66949
34335,3614,53,0,66959
34336,3510,53,0,66969
34336,3534,53,0,66979
34336,3439,53,0,66989
34337,3667,53,0,66999
34337,3330,53,0,67009
34337,3535,53,0,67019
34338,3467,53,0,67029
34338,3216,53,0,67039
34338,3327,53,0,67049
34339,3258,53,0,67059
34339,3235,53,0,67069
34339,3121,53,0,67079
34339,3359,53,0,67089
34340,2978,53,0,67099
34340,3108,53,0,67109
34539,3194,53,0,67119
34540,3382,53,0,67129
34540,3265,53,0,67139
34540,3281,53,0,67149
34541,3200,53,0,67159
34541,3724,53,0,67169
34541,4095,53,0,67179
34542,4095,53,0,67189
34542,4095,53,0,67199
34542,2887,53,0,67209
34542,2534,53,0,67219
34542,2958,53,0,67229
34542,2653,53,0,67239
34543,2999,53,0,67249
34543,2673,53,0,67259
34543,2708,53,0,67269
34543,2721,53,0,67279
34543,2771,53,0,67289
34544,2626,53,0,67299
34544,2463,53,0,67309
34544,2658,53,0,67319
34744,2896,53,0,67329
34744,2512,53,0,67339
34744,2587,53,0,67349
34744,2893,53,0,67359
34745,2657,53,0,67369
34745,2658,53,0,67379
34745,2621,53,0,67389
34745,2352,53,0,67399
34746,2375,53,0,67409
34746,2333,53,0,67419
34746,2324,53,0,67429
34746,2373,53,0,67439
34746,2297,53,0,67449
34747,2226,53,0,67459
34747,2061,53,0,67469
34747,2067,53,0,67479
34747,1904,53,0,67489
34747,1749,53,0,67499
34748,1791,53,0,67509
34748,1903,53,0,67519
34948,1712,53,0,67529
34949,2074,53,0,67539
34949,1841,53,0,67549
34949,1852,53,0,67559
34950,1802,53,0,67569
34950,1906,53,0,67579
34950,1633,53,0,67589
34950,1571,53,0,67599
34951,1798,53,0,67609
34951,1474,53,0,67619
34951,1483,53,0,67629
34951,1471,53,0,67639
34952,1510,53,0,67649
34952,1389,53,0,67659
34952,1446,53,0,67669
34952,1409,53,0,67679
34953,1186,53,0,67689
34953,1474,53,0,67699
34953,1178,53,0,67709
34953,1318,53,0,67719
34954,1301,53,0,67729
35256,1372,53,0,67739
35256,1269,53,0,67749
35257,1262,53,0,67759
35257,1262,53,0,67769
35257,1651,53,0,67779
35258,1223,53,0,67789
35258,1363,53,0,67799
35258,1102,53,0,67809
35258,1174,53,0,67819
35258,1005,53,0,67829
35259,961,53,0,67839
35259,693,53,0,67849
35259,1067,53,0,67859
35259,822,53,0,67869
35260,1206,53,0,67879
35260,720,53,0,67889
35260,1058,53,0,67899
35260,938,53,0,67909
35261,793,53,0,67919
35261,1573,53,0,67929
35309,2643,53,0,67939
35310,2410,53,0,67949
35310,304,53,0,67959
35311,1136,53,0,67969
35311,1167,53,0,67979
35311,1253,53,0,67989
35312,1087,53,0,67999
35312,963,53,0,68009
35312,906,53,0,68019
35312,784,53,0,68029
35312,831,53,0,68039
35313,905,53,0,68049
35313,816,53,0,68059
35313,849,53,0,68069
35313,1114,53,0,68079
35314,809,53,0,68089
35314,982,53,0,68099
35314,898,53,0,68109
35314,898,53,0,68119
35314,875,53,0,68129
35315,1054,53,0,68139
35315,970,53,0,68149
35315,960,53,0,68159
35315,1115,53,0,68169
35316,1035,53,0,68179
35563,958,53,0,68189
35563,1239,53,0,68199
35563,1270,53,0,68209
35564,1168,53,0,68219
35564,1086,53,0,68229
35564,1088,53,0,68239
35564,858,53,0,68249
35565,1099,53,0,68259
35565,578,53,0,68269
35565,640,53,0,68279
35565,947,53,0,68289
35565,763,53,0,68299
35566,838,53,0,68309
35566,718,53,0,68319
35566,742,53,0,68329
35566,1043,53,0,68339
35768,825,53,0,68349
35768,1114,53,0,68359
35768,774,53,0,68369
35769,1108,53,0,68379
35769,913,53,0,68389
35769,1093,53,0,68399
35769,974,53,0,68409
35770,900,53,0,68419
35770,827,53,0,68429
35770,773,53,0,68439
35770,717,53,0,68449
35771,737,53,0,68459
35771,778,53,0,68469
35771,807,53,0,68479
35771,826,53,0,68489
35771,897,53,0,68499
35772,771,53,0,68509
35772,855,53,0,68519
35772,889,53,0,68529
35772,890,53,0,68539
35773,870,53,0,68549
35972,1230,53,0,68559
35973,1142,53,0,68569
35973,1133,53,0,68579
35974,1330,53,0,68589
35974,1223,53,0,68599
35974,1119,53,0,68609
35974,1125,53,0,68619
35975,982,53,0,68629
35975,933,53,0,68639
35975,893,53,0,68649
35975,1095,53,0,68659
35975,976,53,0,68669
35975,994,53,0,68679
35976,1155,53,0,68689
35976,978,53,0,68699
35976,1484,53,0,68709
35976,2184,53,0,68719
35977,3070,43,0,68729
35977,912,43,0,68739
35977,801,43,0,68749
36080,1439,43,0,68759
36081,1350,43,0,68769
36081,1439,43,0,68779
36081,1301,43,0,68789
36082,1328,43,0,68799
36082,1341,43,0,68809
36082,1449,43,0,68819
36082,1206,43,0,68829
36082,1136,43,0,68839
36083,1121,43,0,68849
36083,1189,43,0,68859
36083,1367,43,0,68869
36083,1252,43,0,68879
36084,1216,43,0,68889
36084,1338,43,0,68899
36084,1262,43,0,68909
36084,1279,43,0,68919
36084,1267,43,0,68929
36085,1392,43,0,68939
36085,1314,43,0,68949
36085,1446,43,0,68959
36382,1622,43,0,68969
36383,1582,43,0,68979
36383,1515,43,0,68989
36383,1595,43,0,68999
36383,1375,43,0,69009
36384,1135,43,0,69019
36384,1163,43,0,69029
36384,1110,43,0,69039
36384,937,43,0,69049
36385,970,43,0,69059
36385,933,43,0,69069
36385,930,43,0,69079
36385,890,43,0,69089
36386,919,43,0,69099
36386,1106,43,0,69109
36386,939,43,0,69119
36386,923,43,0,69129
36386,966,43,0,69139
36387,1060,43,0,69149
36387,877,43,0,69159
36587,1190,43,0,69169
36587,1210,43,0,69179
36588,1280,43,0,69189
36588,1152,43,0,69199
36588,1111,43,0,69209
36588,1231,43,0,69219
36589,1047,43,0,69229
36589,962,43,0,69239
36589,833,43,0,69249
36589,1023,43,0,69259
36590,1066,43,0,69269
36590,956,43,0,69279
36590,896,43,0,69289
36591,939,43,0,69299
36591,971,43,0,69309
36591,1058,43,0,69319
36591,874,43,0,69329
36592,1036,43,0,69339
36592,870,43,0,69349
36593,752,43,0,69359
36593,1280,43,0,69369
36792,1147,43,0,69379
36792,1290,43,0,69389
36793,1160,43,0,69399
36793,1034,43,0,69409
36793,1040,43,0,69419
36794,1130,43,0,69429
36794,903,43,0,69439
36794,752,43,0,69449
36794,749,43,0,69459
36795,873,43,0,69469
36795,816,43,0,69479
36795,942,43,0,69489
36795,1051,43,0,69499
36795,1018,43,0,69509
36796,1144,43,0,69519
36796,1744,43,0,69529
36796,2539,43,0,69539
36796,1898,43,0,69549
36797,271,43,0,69559
36797,1254,43,0,69569
36996,1424,43,0,69579
36997,1161,43,0,69589
36997,1423,43,0,69599
36997,1261,43,0,69609
36997,1410,43,0,69619
36998,1421,43,0,69629
36998,1286,43,0,69639
36998,1275,43,0,69649
36998,1317,43,0,69659
36998,1117,43,0,69669
36999,1379,43,0,69679
36999,1360,43,0,69689
36999,1122,43,0,69699
36999,1520,43,0,69709
37000,1483,43,0,69719
37000,1261,43,0,69729
37000,1653,43,0,69739
37000,1406,43,0,69749
37000,1402,43,0,69759
37001,1774,43,0,69769
37001,1535,43,0,69779
37201,2096,43,0,69789
37202,1985,43,0,69799
37202,1725,43,0,69809
37203,1721,43,0,69819
37203,1600,43,0,69829
37204,1361,43,0,69839
37204,1495,43,0,69849
37205,1456,43,0,69859
37205,1286,43,0,69869
37205,1466,43,0,69879
37206,1312,43,0,69889
37206,1389,43,0,69899
37206,1597,43,0,69909
37206,1409,43,0,69919
37207,1510,43,0,69929
37207,1535,43,0,69939
37207,1513,43,0,69949
37208,1683,43,0,69959
37208,1535,43,0,69969
37209,1691,43,0,69979
37406,1954,43,0,69989
37406,1979,43,0,69999
37407,1829,43,0,70009
37407,2119,43,0,70019
37407,1985,43,0,70029
37407,2155,43,0,70039
37407,2060,43,0,70049
37408,1953,43,0,70059
37408,1921,43,0,70069
37408,1770,43,0,70079
37409,2232,43,0,70089
37409,2165,43,0,70099
37409,2087,43,0,70109
37409,2267,43,0,70119
37409,2126,43,0,70129
37410,2449,43,0,70139
37410,2448,43,0,70149
37410,2531,43,0,70159
37410,2619,43,0,70169
37411,2646,43,0,70179
37611,2751,43,0,70189
37611,2949,43,0,70199
37611,2885,43,0,70209
37611,2925,43,0,70219
37612,3007,47,0,70229
37612,3152,47,0,70239
37612,3332,47,0,70249
37612,2995,47,0,70259
37613,3195,47,0,70269
37613,3241,47,0,70279
37613,3006,47,0,70289
37613,3253,47,0,70299
37614,3669,47,0,70309
37614,4095,47,0,70319
37614,4095,47,0,70329
37614,4095,47,0,70339
37614,3681,47,0,70349
37615,3219,47,0,70359
37615,3773,47,0,70369
37615,3494,47,0,70379
37615,3803,47,0,70389
37816,4095,47,0,70399
37816,4095,47,0,70409
37816,4095,47,0,70419
37817,4095,47,0,70429
37817,4095,47,0,70439
37817,4095,47,0,70449
37818,4095,47,0,70459
37818,4095,47,0,70469
37818,4095,47,0,70479
37818,4095,47,0,70489
37819,4095,47,0,70499
37819,4095,47,0,70509
37819,4095,47,0,70519
37820,4095,47,0,70529
37820,4095,47,0,70539
37820,4095,47,0,70549
37820,4095,47,0,70559
37820,4095,47,0,70569
37821,4095,47,0,70579
37821,4095,47,0,70589
38020,4095,47,0,70599
38021,4095,47,0,70609
38021,4095,47,0,70619
38021,4095,47,0,70629
38022,4095,47,0,70639
38022,4095,47,0,70649
38022,4095,47,0,70659
38022,4095,47,0,70669
38023,4095,47,0,70679
38023,4095,47,0,70689
38023,4095,47,0,70699
38023,4095,47,0,70709
38024,4095,47,0,70719
38024,4095,47,0,70729
38024,4095,47,0,70739
38024,4095,47,0,70749
38025,4095,47,0,70759
38025,4095,47,0,70769
38025,4095,47,0,70779
38025,4095,47,0,70789
38026,4095,47,0,70799
38198,4095,47,0,70809
38199,4095,47,0,70819
38199,4095,47,0,70829
38199,4095,47,0,70839
38199,4095,47,0,70849
38200,4095,47,0,70859
38200,4095,47,0,70869
38200,4095,47,0,70879
38200,4095,47,0,70889
38201,4095,47,0,70899
38201,4095,47,0,70909
38201,4095,47,0,70919
38201,4095,47,0,70929
38202,4095,47,0,70939
38202,4095,47,0,70949
38202,4095,47,0,70959
38202,4095,47,0,70969
38202,4095,47,0,70979
38203,4095,47,0,70989
38203,4095,47,0,70999
38430,4095,47,0,71009
38430,4095,47,0,71019
38431,4095,47,0,71029
38431,4095,47,0,71039
38431,4095,47,0,71049
38431,4095,47,0,71059
38432,4095,47,0,71069
38432,4095,47,0,71079
38432,4095,47,0,71089
38432,4095,47,0,71099
38433,4095,47,0,71109
38433,4095,47,0,71119
38433,4095,47,0,71129
38434,4095,47,0,71139
38434,4095,47,0,71149
38434,2201,47,0,71159
38434,1501,47,0,71169
38435,2111,47,0,71179
38435,1771,47,0,71189
38435,1890,47,0,71199
38436,1861,47,0,71209
38635,1836,47,0,71219
38635,1855,47,0,71229
38636,1850,47,0,71239
38636,1841,47,0,71249
38636,1844,47,0,71259
38636,1840,47,0,71269
38637,1847,47,0,71279
38637,2080,47,0,71289
38638,2710,47,0,71299
38638,4095,43,0,71309
38638,4095,43,0,71319
38638,4095,43,0,71329
38639,4095,43,0,71339
38639,4095,43,0,71349
38639,4095,43,0,71359
38639,4095,43,0,71369
38640,4095,43,0,71379
38640,4095,43,0,71389
38640,4095,43,0,71399
38641,4095,43,0,71409
38756,4095,43,0,71419
38765,4095,43,0,71429
38765,4095,43,0,71439
38765,4095,43,0,71449
38766,4095,43,0,71459
38766,4095,43,0,71469
38766,4095,43,0,71479
38766,4095,43,0,71489
38767,4095,43,0,71499
38767,4095,43,0,71509
38767,4095,43,0,71519
38768,4095,43,0,71529
38768,4095,43,0,71539
38768,4095,43,0,71549
38768,4095,43,0,71559
38769,4095,43,0,71569
38769,4095,43,0,71579
38769,4095,43,0,71589
38770,4095,43,0,71599
38770,4095,43,0,71609
38770,4095,43,0,71619
39045,4095,43,0,71629
39045,4095,43,0,71639
39046,4095,43,0,71649
39046,4095,43,0,71659
39046,4095,43,0,71669
39047,4095,43,0,71679
39047,4095,43,0,71689
39047,4095,43,0,71699
39047,4095,43,0,71709
39048,4095,43,0,71719
39048,4095,43,0,71729
39048,4095,43,0,71739
39048,3643,43,0,71749
39049,3114,43,0,71759
39049,3274,43,0,71769
39049,3443,43,0,71779
39049,4095,43,0,71789
39050,4095,43,0,71799
39050,2718,43,0,71809
39051,1897,43,0,71819
39249,2350,43,0,71829
39258,2241,43,0,71839
39260,1915,43,0,71849
39260,1983,43,0,71859
39261,1807,43,0,71869
39261,1783,43,0,71879
39261,1577,43,0,71889
39262,1444,43,0,71899
39262,1309,43,0,71909
39263,1239,43,0,71919
39263,1044,43,0,71929
39263,990,43,0,71939
39264,925,43,0,71949
39264,829,43,0,71959
39264,734,43,0,71969
39264,839,43,0,71979
39265,664,43,0,71989
39265,672,43,0,71999
39265,496,43,0,72009
39266,562,43,0,72019
39266,400,43,0,72029
39454,436,43,0,72039
39454,302,43,0,72049
39455,396,43,0,72059
39455,64,43,0,72069
39455,33,43,0,72079
39456,0,43,0,72089
39456,0,43,0,72099
39456,0,43,0,72109
39456,0,43,0,72119
39457,0,43,0,72129
39457,0,43,0,72139
39457,0,43,0,72149
39457,0,43,0,72159
39458,0,43,0,72169
39458,0,43,0,72179
39458,0,43,0,72189
39458,0,43,0,72199
39459,0,43,0,72209
39459,0,43,0,72219
39459,0,43,0,72229
39659,0,43,0,72239
39659,0,43,0,72249
39660,0,43,0,72259
39660,0,43,0,72269
39660,0,43,0,72279
39660,0,43,0,72289
39661,0,43,0,72299
39661,0,43,0,72309
39661,0,43,0,72319
39661,0,43,0,72329
39661,0,43,0,72339
39662,0,43,0,72349
39662,0,43,0,72359
39662,0,43,0,72369
39662,0,43,0,72379
39663,0,43,0,72389
39663,0,43,0,72399
39663,0,43,0,72409
39663,0,43,0,72419
39664,0,43,0,72429
39664,0,43,0,72439
39864,0,43,0,72449
39865,0,43,0,72459
39865,0,43,0,72469
39865,0,43,0,72479
39866,0,43,0,72489
39866,0,43,0,72499
39866,0,43,0,72509
39866,698,43,0,72519
39867,1040,43,0,72529
39867,1577,43,0,72539
39867,1418,43,0,72549
39867,0,43,0,72559
39868,0,43,0,72569
39868,225,43,0,72579
39868,70,43,0,72589
39868,185,43,0,72599
39869,177,43,0,72609
39869,191,43,0,72619
39869,378,43,0,72629
39869,304,43,0,72639
40056,452,43,0,72649
40056,511,43,0,72659
40056,600,43,0,72669
40057,670,43,0,72679
40057,650,43,0,72689
40057,909,43,0,72699
40058,787,43,0,72709
40058,854,43,0,72719
40058,859,43,0,72729
40059,933,43,0,72739
40059,1056,43,0,72749
40059,1143,43,0,72759
40059,1232,43,0,72769
40060,1280,43,0,72779
40060,1514,43,0,72789
40060,1636,43,0,72799
40060,1445,43,0,72809
40060,1621,43,0,72819
40061,1431,43,0,72829
40061,1414,43,0,72839
40061,1603,43,0,72849
40210,1651,43,0,72859
40211,1770,43,0,72869
40211,1765,43,0,72879
40211,1833,43,0,72889
40211,1842,43,0,72899
40212,2181,43,0,72909
40212,2133,43,0,72919
40213,2170,43,0,72929
40213,2378,43,0,72939
40213,2430,43,0,72949
40213,2559,43,0,72959
40214,2653,43,0,72969
40214,2823,43,0,72979
40214,3046,47,0,72989
40215,3013,47,0,72999
40215,3061,47,0,73009
40215,3491,47,0,73019
40215,3475,47,0,73029
40216,3700,47,0,73039
40216,3909,47,0,73049
40478,4095,47,0,73059
40479,4095,47,0,73069
40479,4095,47,0,73079
40480,4095,47,0,73089
40481,4095,47,0,73099
40481,4095,47,0,73109
40481,4095,47,0,73119
40482,4095,47,0,73129
40482,4095,47,0,73139
40482,4095,47,0,73149
40483,4095,47,0,73159
40483,4095,47,0,73169
40483,4095,47,0,73179
40484,4095,47,0,73189
40484,4095,47,0,73199
40484,4095,47,0,73209
40485,4095,47,0,73219
40485,4095,47,0,73229
40485,3909,47,0,73239
40486,3504,47,0,73249
40486,3440,47,0,73259
40683,3846,47,0,73269
40683,3703,47,0,73279
40683,3473,47,0,73289
40684,3309,47,0,73299
40684,3061,47,0,73309
40684,3875,47,0,73319
40684,4095,47,0,73329
40685,4095,47,0,73339
40685,2795,47,0,73349
40685,2640,47,0,73359
40685,2711,47,0,73369
40686,2486,47,0,73379
40686,2381,47,0,73389
40686,2324,47,0,73399
40686,2100,47,0,73409
40686,2007,47,0,73419
40687,1959,47,0,73429
40687,1842,47,0,73439
40687,1667,47,0,73449
40687,1728,47,0,73459
40888,1754,47,0,73469
40888,1777,47,0,73479
40888,1799,47,0,73489
40889,1648,47,0,73499
40889,1765,47,0,73509
40889,1619,47,0,73519
40889,1648,47,0,73529
40890,1631,47,0,73539
40890,1415,47,0,73549
40890,1681,47,0,73559
40890,1734,47,0,73569
40890,1680,47,0,73579
40891,1723,47,0,73589
40891,1631,47,0,73599
40891,1522,47,0,73609
40891,1357,47,0,73619
40892,1271,47,0,73629
40892,1262,47,0,73639
40892,843,47,0,73649
40892,1009,47,0,73659
40892,1058,47,0,73669
41092,912,47,0,73679
41093,1011,47,0,73689
41093,793,47,0,73699
41093,875,47,0,73709
41093,723,47,0,73719
41094,733,47,0,73729
41094,579,47,0,73739
41094,361,47,0,73749
41094,408,47,0,73759
41095,435,47,0,73769
41095,442,47,0,73779
41095,255,47,0,73789
41095,371,47,0,73799
41095,319,47,0,73809
41096,237,47,0,73819
41096,208,47,0,73829
41096,112,47,0,73839
41096,133,47,0,73849
41097,139,47,0,73859
41097,81,47,0,73869
41297,70,47,0,73879
41298,0,47,0,73889
41298,39,47,0,73899
41300,96,47,0,73909
41300,0,47,0,73919
41300,0,47,0,73929
41301,0,47,0,73939
41301,0,47,0,73949
41302,0,47,0,73959
41302,0,47,0,73969
41302,0,47,0,73979
41302,0,47,0,73989
41302,0,47,0,73999
41303,0,47,0,74009
41303,0,47,0,74019
41303,0,47,0,74029
41304,0,47,0,74039
41304,0,47,0,74049
41304,0,47,0,74059
41304,0,47,0,74069
41305,0,47,0,74079
41488,0,47,0,74089
41489,688,47,0,74099
41489,1530,47,0,74109
41489,1023,47,0,74119
41489,0,47,0,74129
41489,29,47,0,74139
41490,431,47,0,74149
41490,229,47,0,74159
41490,273,47,0,74169
41490,383,47,0,74179
41490,428,47,0,74189
41491,579,47,0,74199
41491,706,47,0,74209
41491,714,47,0,74219
41491,1332,47,0,74229
41492,1557,47,0,74239
41492,1778,47,0,74249
41492,1973,47,0,74259
41492,2247,47,0,74269
41492,2142,47,0,74279
41609,2320,47,0,74289
41609,2398,47,0,74299
41610,2402,47,0,74309
41610,2345,47,0,74319
41610,2263,47,0,74329
41610,1844,47,0,74339
41610,1535,47,0,74349
41611,1623,47,0,74359
41611,1171,47,0,74369
41611,1214,47,0,74379
41611,1072,47,0,74389
41611,1008,47,0,74399
41611,1081,47,0,74409
41612,967,47,0,74419
41612,1008,47,0,74429
41612,1131,47,0,74439
41612,1007,47,0,74449
41612,1102,47,0,74459
41612,1106,47,0,74469
41613,1271,47,0,74479
41613,1646,47,0,74489
41813,1758,47,0,74499
41813,1712,47,0,74509
41814,1858,47,0,74519
41814,1836,47,0,74529
41814,1842,47,0,74539
41814,1850,47,0,74549
41814,1809,47,0,74559
41815,1716,47,0,74569
41815,1719,47,0,74579
41816,1713,47,0,74589
41816,1750,47,0,74599
41816,1680,47,0,74609
41816,1644,47,0,74619
41817,1696,47,0,74629
41817,1681,47,0,74639
41817,1603,47,0,74649
41817,1656,47,0,74659
41817,1646,47,0,74669
41817,1674,47,0,74679
41818,1644,47,0,74689
42050,1683,47,0,74699
42051,1835,47,0,74709
42051,1648,47,0,74719
42052,1569,47,0,74729
42052,1616,47,0,74739
42052,1448,47,0,74749
42053,1398,47,0,74759
42053,1261,47,0,74769
42053,1270,47,0,74779
42053,1231,47,0,74789
42054,1153,47,0,74799
42054,1104,47,0,74809
42054,1136,47,0,74819
42054,1584,47,0,74829
42055,2045,47,0,74839
42056,2691,47,0,74849
42057,583,47,0,74859
42057,731,47,0,74869
42057,548,47,0,74879
42058,562,47,0,74889
42058,416,47,0,74899
42226,558,47,0,74909
42226,464,47,0,74919
42227,490,47,0,74929
42227,459,47,0,74939
42227,501,47,0,74949
42227,727,47,0,74959
42227,330,47,0,74969
42228,560,47,0,74979
42228,496,47,0,74989
42228,453,47,0,74999
42228,436,47,0,75009
42228,325,47,0,75019
42228,266,47,0,75029
42229,281,47,0,75039
42229,273,47,0,75049
42229,290,47,0,75059
42229,495,47,0,75069
42229,375,47,0,75079
42229,557,47,0,75089
42229,528,47,0,75099
42526,598,47,0,75109
42526,647,47,0,75119
42526,529,47,0,75129
42526,432,47,0,75139
42527,382,47,0,75149
42527,289,47,0,75159
42527,331,47,0,75169
42527,263,47,0,75179
42527,180,47,0,75189
42528,319,47,0,75199
42528,304,47,0,75209
42528,406,47,0,75219
42528,455,47,0,75229
42528,544,47,0,75239
42529,570,47,0,75249
42529,556,47,0,75259
42529,511,47,0,75269
42529,581,47,0,75279
42529,631,47,0,75289
42530,665,47,0,75299
42731,706,47,0,75309
42731,880,47,0,75319
42731,970,47,0,75329
42731,1045,47,0,75339
42731,982,47,0,75349
42732,1060,47,0,75359
42732,1064,47,0,75369
42732,1033,47,0,75379
42733,905,47,0,75389
42733,943,47,0,75399
42733,997,47,0,75409
42733,1036,47,0,75419
42734,980,47,0,75429
42734,971,47,0,75439
42734,1155,47,0,75449
42734,1040,47,0,75459
42735,1015,47,0,75469
42735,1082,47,0,75479
42735,1021,47,0,75489
42735,1137,47,0,75499
42735,1124,47,0,75509
42936,1275,47,0,75519
42937,1322,47,0,75529
42937,1343,47,0,75539
42937,1280,47,0,75549
42937,1480,47,0,75559
42937,1973,47,0,75569
42938,2675,47,0,75579
42938,2973,47,0,75589
42938,883,47,0,75599
42938,1535,47,0,75609
42938,1450,47,0,75619
42938,1607,47,0,75629
42938,1586,47,0,75639
42939,1589,47,0,75649
42939,1775,47,0,75659
42939,1573,47,0,75669
42939,1535,47,0,75679
42939,1467,47,0,75689
42939,1463,47,0,75699
42939,1517,47,0,75709
43140,1585,47,0,75719
43141,1577,47,0,75729
43141,1514,47,0,75739
43141,1298,47,0,75749
43141,1397,47,0,75759
43141,1399,47,0,75769
43142,1441,47,0,75779
43142,1471,47,0,75789
43142,1456,47,0,75799
43142,1499,47,0,75809
43142,1658,47,0,75819
43142,1905,47,0,75829
43143,2058,47,0,75839
43143,1863,47,0,75849
43143,1936,47,0,75859
43143,1808,47,0,75869
43143,1767,47,0,75879
43143,1685,47,0,75889
43144,1625,47,0,75899
43144,1515,47,0,75909
43144,1479,47,0,75919
43345,1599,47,0,75929
43345,1555,47,0,75939
43346,1514,47,0,75949
43346,1557,47,0,75959
43346,1515,47,0,75969
43346,1565,47,0,75979
43346,1498,47,0,75989
43346,1371,47,0,75999
43347,1333,47,0,76009
43347,1419,47,0,76019
43347,1271,47,0,76029
43347,1328,47,0,76039
43347,1263,47,0,76049
43347,1334,47,0,76059
43348,1239,47,0,76069
43348,1313,47,0,76079
43348,1333,47,0,76089
43348,1266,47,0,76099
43348,1327,47,0,76109
43348,1279,47,0,76119
43550,1441,47,0,76129
43551,1559,47,0,76139
43551,1506,47,0,76149
43551,1627,47,0,76159
43552,1727,47,0,76169
43552,1731,47,0,76179
43552,1710,47,0,76189
43552,1701,47,0,76199
43553,1725,47,0,76209
43553,1776,47,0,76219
43553,1640,47,0,76229
43553,1840,47,0,76239
43553,1641,47,0,76249
43553,1661,47,0,76259
43554,1659,47,0,76269
43554,1624,47,0,76279
43554,1600,47,0,76289
43554,1680,47,0,76299
43554,1578,47,0,76309
43555,1680,47,0,76319
43555,1731,47,0,76329
43755,1842,47,0,76339
43755,1789,47,0,76349
43756,2157,47,0,76359
43756,2800,47,0,76369
43756,3840,35,0,76379
43756,1535,35,0,76389
43757,1427,35,0,76399
43757,1711,35,0,76409
43757,1555,35,0,76419
43757,1583,35,0,76429
43757,1581,35,0,76439
43758,1565,35,0,76449
43758,1611,35,0,76459
43758,1575,35,0,76469
43758,1589,35,0,76479
43758,1687,35,0,76489
43758,1680,35,0,76499
43759,1618,35,0,76509
43759,1711,35,0,76519
43759,1682,35,0,76529
43960,1808,35,0,76539
43961,1841,35,0,76549
43961,1936,35,0,76559
43961,1957,35,0,76569
43961,2099,35,0,76579
43962,2143,35,0,76589
43962,2283,35,0,76599
43962,2224,35,0,76609
43962,2227,35,0,76619
43962,2275,35,0,76629
43963,2358,35,0,76639
43963,2256,35,0,76649
43963,2262,35,0,76659
43964,2183,35,0,76669
43964,2150,35,0,76679
43964,2128,35,0,76689
43964,2201,35,0,76699
43965,2233,35,0,76709
43965,2206,35,0,76719
43965,2273,35,0,76729
43965,2409,35,0,76739
44068,2497,35,0,76749
44069,2546,35,0,76759
44070,2593,35,0,76769
44070,2642,35,0,76779
44070,2672,35,0,76789
44071,2654,35,0,76799
44071,2810,35,0,76809
44071,2647,35,0,76819
44071,2755,35,0,76829
44071,2645,35,0,76839
44072,2703,35,0,76849
44072,2773,35,0,76859
44072,2707,35,0,76869
44072,2790,35,0,76879
44072,2731,35,0,76889
44073,2781,35,0,76899
44073,2739,35,0,76909
44073,2662,35,0,76919
44073,2666,35,0,76929
44073,2559,35,0,76939
44369,2698,35,0,76949
44370,2778,35,0,76959
44370,2705,35,0,76969
44370,2769,35,0,76979
44370,2667,35,0,76989
44371,2673,35,0,76999
44371,2706,35,0,77009
44371,2601,35,0,77019
44371,2559,35,0,77029
44372,2598,35,0,77039
44372,2440,35,0,77049
44372,2611,35,0,77059
44372,2442,35,0,77069
44372,2442,35,0,77079
44373,2410,35,0,77089
44373,2489,35,0,77099
44373,2422,35,0,77109
44374,2457,35,0,77119
44374,2422,35,0,77129
44374,2360,35,0,77139
44374,2478,35,0,77149
44574,3025,45,0,77159
44574,3055,45,0,77169
44575,3648,45,0,77179
44575,4095,45,0,77189
44575,4095,45,0,77199
44576,4095,45,0,77209
44576,2800,45,0,77219
44576,2903,45,0,77229
44576,3462,45,0,77239
44576,3011,45,0,77249
44576,3012,45,0,77259
44577,2764,45,0,77269
44577,2614,45,0,77279
44577,2541,45,0,77289
44577,2401,45,0,77299
44577,2474,45,0,77309
44578,2230,45,0,77319
44578,2317,45,0,77329
44578,2137,45,0,77339
44579,2133,45,0,77349
44779,2090,45,0,77359
44779,2021,45,0,77369
44779,2000,45,0,77379
44780,1925,45,0,77389
44780,2096,45,0,77399
44780,2144,45,0,77409
44780,1936,45,0,77419
44780,1968,45,0,77429
44781,1765,45,0,77439
44781,1739,45,0,77449
44781,1808,45,0,77459
44781,1555,45,0,77469
44781,1488,45,0,77479
44782,1303,45,0,77489
44782,1167,45,0,77499
44782,1042,45,0,77509
44782,1011,45,0,77519
44782,860,45,0,77529
44783,858,45,0,77539
44783,794,45,0,77549
44783,756,45,0,77559
44984,816,45,0,77569
44984,816,45,0,77579
44984,741,45,0,77589
44985,761,45,0,77599
44985,675,45,0,77609
44985,753,45,0,77619
44986,574,45,0,77629
44986,444,45,0,77639
44986,453,45,0,77649
44987,393,45,0,77659
44987,321,45,0,77669
44987,352,45,0,77679
44988,336,45,0,77689
44988,331,45,0,77699
44988,336,45,0,77709
44988,321,45,0,77719
44989,418,45,0,77729
44989,454,45,0,77739
44989,470,45,0,77749
44989,479,45,0,77759
45189,590,45,0,77769
45189,734,45,0,77779
45189,582,45,0,77789
45189,878,45,0,77799
45190,798,45,0,77809
45190,812,45,0,77819
45190,743,45,0,77829
45191,749,45,0,77839
45191,752,45,0,77849
45191,538,45,0,77859
45191,688,45,0,77869
45192,511,45,0,77879
45192,621,45,0,77889
45193,240,45,0,77899
45193,598,45,0,77909
45193,613,45,0,77919
45193,609,45,0,77929
45194,575,45,0,77939
45194,560,45,0,77949
45194,410,45,0,77959
45195,381,45,0,77969
45393,818,45,0,77979
45394,1063,45,0,77989
45395,2194,45,0,77999
45395,858,45,0,78009
45395,0,45,0,78019
45395,48,45,0,78029
45395,87,45,0,78039
45396,0,45,0,78049
45396,0,45,0,78059
45396,0,45,0,78069
45396,15,45,0,78079
45396,0,45,0,78089
45397,0,45,0,78099
45397,0,45,0,78109
45397,0,45,0,78119
45397,0,45,0,78129
45397,16,45,0,78139
45398,78,45,0,78149
45398,11,45,0,78159
45398,131,45,0,78169
45598,241,45,0,78179
45598,284,45,0,78189
45599,362,45,0,78199
45599,320,45,0,78209
45599,391,45,0,78219
45599,386,45,0,78229
45600,418,45,0,78239
45600,273,45,0,78249
45600,343,45,0,78259
45600,379,45,0,78269
45600,258,45,0,78279
45601,195,45,0,78289
45601,252,45,0,78299
45601,193,45,0,78309
45601,179,45,0,78319
45601,190,45,0,78329
45602,257,45,0,78339
45602,278,45,0,78349
45602,353,45,0,78359
45602,334,45,0,78369
45602,1380,45,0,78379
45803,1666,45,0,78389
45803,1577,45,0,78399
45804,1680,45,0,78409
45805,1635,45,0,78419
45805,1669,45,0,78429
45806,1599,45,0,78439
45806,1438,45,0,78449
45807,1325,45,0,78459
45807,1315,45,0,78469
45808,1328,45,0,78479
45808,1215,45,0,78489
45808,1296,45,0,78499
45808,1189,45,0,78509
45808,1223,45,0,78519
45809,1103,45,0,78529
45809,1057,45,0,78539
45810,1086,45,0,78549
45810,1094,45,0,78559
45810,1023,45,0,78569
45811,1156,45,0,78579
46008,1210,45,0,78589
46008,1113,45,0,78599
46009,597,45,0,78609
46009,498,45,0,78619
46009,351,45,0,78629
46010,379,45,0,78639
46010,358,45,0,78649
46010,343,45,0,78659
46010,135,45,0,78669
46011,256,45,0,78679
46011,145,45,0,78689
46011,385,45,0,78699
46011,197,45,0,78709
46012,235,45,0,78719
46012,223,45,0,78729
46012,730,45,0,78739
46012,1535,45,0,78749
46013,1969,45,0,78759
46013,0,45,0,78769
46014,468,45,0,78779
46014,510,45,0,78789
46213,714,45,0,78799
46214,808,45,0,78809
46214,848,45,0,78819
46214,850,45,0,78829
46214,938,45,0,78839
46214,1586,45,0,78849
46215,2294,45,0,78859
46215,2001,45,0,78869
46215,2194,45,0,78879
46215,2137,45,0,78889
46215,2240,45,0,78899
46215,2239,45,0,78909
46216,2205,45,0,78919
46216,2238,45,0,78929
46216,2285,45,0,78939
46216,2242,45,0,78949
46216,2399,45,0,78959
46216,2403,45,0,78969
46217,2330,45,0,78979
46217,2383,45,0,78989
46417,2587,45,0,78999
46418,2595,45,0,79009
46418,2580,45,0,79019
46418,2503,45,0,79029
46418,2502,45,0,79039
46418,2385,45,0,79049
46419,2288,45,0,79059
46419,2112,45,0,79069
46419,2063,45,0,79079
46419,2025,45,0,79089
46419,1943,45,0,79099
46420,1903,45,0,79109
46420,1912,45,0,79119
46420,1882,45,0,79129
46420,1975,45,0,79139
46420,1813,45,0,79149
46421,1904,45,0,79159
46421,1767,45,0,79169
46421,1830,45,0,79179
46421,1769,45,0,79189
46421,1810,45,0,79199
46622,1982,45,0,79209
46623,1963,45,0,79219
46623,1999,45,0,79229
46624,1982,45,0,79239
46624,1993,45,0,79249
46624,1990,45,0,79259
46624,1858,45,0,79269
46625,1714,45,0,79279
46625,1741,45,0,79289
46625,1675,45,0,79299
46625,1571,45,0,79309
46625,1507,45,0,79319
46626,1405,45,0,79329
46626,1387,45,0,79339
46626,1259,45,0,79349
46626,1311,45,0,79359
46626,1202,45,0,79369
46627,1242,45,0,79379
46627,1306,45,0,79389
46627,1169,45,0,79399
46827,1316,45,0,79409
46827,1364,45,0,79419
46827,1179,45,0,79429
46828,1133,45,0,79439
46828,1023,45,0,79449
46828,992,45,0,79459
46828,839,45,0,79469
46828,784,45,0,79479
46828,727,45,0,79489
46828,786,45,0,79499
46829,816,45,0,79509
46829,682,45,0,79519
46829,891,45,0,79529
46829,1451,45,0,79539
46829,2030,45,0,79549
46830,653,45,0,79559
46830,0,45,0,79569
46830,0,45,0,79579
46830,0,45,0,79589
46830,0,45,0,79599
46830,0,45,0,79609
47032,0,45,0,79619
47032,0,45,0,79629
47032,0,45,0,79639
47033,0,45,0,79649
47033,0,45,0,79659
47033,0,45,0,79669
47033,0,45,0,79679
47033,0,45,0,79689
47034,0,45,0,79699
47034,0,45,0,79709
47034,0,45,0,79719
47034,0,45,0,79729
47034,0,45,0,79739
47034,0,45,0,79749
47035,0,45,0,79759
47035,0,45,0,79769
47035,0,45,0,79779
47035,0,45,0,79789
47035,0,45,0,79799
47035,0,45,0,79809
47237,0,45,0,79819
47237,0,45,0,79829
47237,0,45,0,79839
47237,0,45,0,79849
47238,0,45,0,79859
47238,0,45,0,79869
47238,0,45,0,79879
47238,0,45,0,79889
47238,0,45,0,79899
47239,0,45,0,79909
47239,0,45,0,79919
47239,0,45,0,79929
47239,0,45,0,79939
47239,0,45,0,79949
47240,0,45,0,79959
47240,0,45,0,79969
47240,0,45,0,79979
47241,0,45,0,79989
47241,0,45,0,79999
47241,0,45,0,80009
47347,0,45,0,80019
47348,0,45,0,80029
47348,0,45,0,80039
47348,0,45,0,80049
47348,170,45,0,80059
47348,240,45,0,80069
47349,253,45,0,80079
47349,329,45,0,80089
47349,298,45,0,80099
47349,314,45,0,80109
47350,197,45,0,80119
47350,265,45,0,80129
47350,348,45,0,80139
47350,246,45,0,80149
47350,480,45,0,80159
47351,432,45,0,80169
47351,498,45,0,80179
47351,535,45,0,80189
47351,708,45,0,80199
47351,706,45,0,80209
47352,752,45,0,80219
47646,942,45,0,80229
47647,1043,45,0,80239
47647,911,45,0,80249
47647,1005,45,0,80259
47647,993,45,0,80269
47647,978,45,0,80279
47648,979,45,0,80289
47648,949,45,0,80299
47648,1149,45,0,80309
47648,1439,45,0,80319
47648,1378,45,0,80329
47649,1509,45,0,80339
47649,1615,45,0,80349
47649,1687,45,0,80359
47649,1829,45,0,80369
47649,1882,45,0,80379
47650,2384,45,0,80389
47650,3189,40,0,80399
47650,3575,40,0,80409
47650,1360,40,0,80419
47851,1991,40,0,80429
47851,2207,40,0,80439
47852,2188,40,0,80449
47852,2305,40,0,80459
47852,2337,40,0,80469
47852,2304,40,0,80479
47852,2352,40,0,80489
47853,2309,40,0,80499
47853,2243,40,0,80509
47853,2256,40,0,80519
47853,2211,40,0,80529
47853,2192,40,0,80539
47854,2199,40,0,80549
47854,2243,40,0,80559
47854,2279,40,0,80569
47855,2272,40,0,80579
47855,2321,40,0,80589
47855,2303,40,0,80599
47855,2283,40,0,80609
47855,2390,40,0,80619
47856,2377,40,0,80629
48056,2606,40,0,80639
48056,2641,40,0,80649
48056,2698,40,0,80659
48057,2599,40,0,80669
48057,2592,40,0,80679
48057,2423,40,0,80689
48060,2393,40,0,80699
48061,2159,40,0,80709
48061,2157,40,0,80719
48062,2121,40,0,80729
48062,2163,40,0,80739
48062,2208,40,0,80749
48062,2138,40,0,80759
48062,2133,40,0,80769
48063,2183,40,0,80779
48063,2101,40,0,80789
48063,2094,40,0,80799
48063,2104,40,0,80809
48064,2096,40,0,80819
48064,1972,40,0,80829
48064,2192,40,0,80839
48253,2203,40,0,80849
48254,2192,40,0,80859
48254,2159,40,0,80869
48254,2235,40,0,80879
48254,2147,40,0,80889
48255,2300,40,0,80899
48255,2176,40,0,80909
48255,2131,40,0,80919
48255,2170,40,0,80929
48255,2154,40,0,80939
48256,2226,40,0,80949
48256,2211,40,0,80959
48256,2209,40,0,80969
48256,2335,40,0,80979
48257,2304,40,0,80989
48257,2340,40,0,80999
48257,2397,40,0,81009
48257,2457,40,0,81019
48257,2395,40,0,81029
48258,2527,40,0,81039
48465,2605,40,0,81049
48466,2702,40,0,81059
48466,2723,40,0,81069
48467,2809,40,0,81079
48467,2746,40,0,81089
48467,2915,40,0,81099
48468,2885,40,0,81109
48468,2698,40,0,81119
48468,2756,40,0,81129
48469,2722,40,0,81139
48469,2681,40,0,81149
48469,2640,40,0,81159
48469,2836,40,0,81169
48470,2669,40,0,81179
48470,2691,40,0,81189
48470,2791,40,0,81199
48470,2755,40,0,81209
48470,2881,40,0,81219
48471,2757,40,0,81229
48471,2794,40,0,81239
48670,3017,43,0,81249
48671,4029,43,0,81259
48671,4095,43,0,81269
48671,4095,43,0,81279
48671,3330,43,0,81289
48671,2719,43,0,81299
48672,3312,43,0,81309
48672,2998,43,0,81319
48672,2832,43,0,81329
48672,2923,43,0,81339
48672,2857,43,0,81349
48673,2855,43,0,81359
48673,2864,43,0,81369
48673,2938,43,0,81379
48673,2960,43,0,81389
48674,2927,43,0,81399
48674,3024,43,0,81409
48674,3046,43,0,81419
48674,3024,43,0,81429
48674,3092,43,0,81439
48675,3105,43,0,81449
48875,3323,43,0,81459
48876,3363,43,0,81469
48876,3405,43,0,81479
48876,3450,43,0,81489
48877,3493,43,0,81499
48877,3499,43,0,81509
48877,3471,43,0,81519
48877,3264,43,0,81529
48877,3248,43,0,81539
48878,3174,43,0,81549
48878,3003,43,0,81559
48878,2906,43,0,81569
48878,2815,43,0,81579
48878,2773,43,0,81589
48879,2847,43,0,81599
48879,2775,43,0,81609
48879,2764,43,0,81619
48879,2640,43,0,81629
48880,2655,43,0,81639
48880,2598,43,0,81649
49080,2704,43,0,81659
49081,2750,43,0,81669
49081,2726,43,0,81679
49081,2659,43,0,81689
49082,2649,43,0,81699
49082,2553,43,0,81709
49082,2443,43,0,81719
49082,2224,43,0,81729
49082,2170,43,0,81739
49083,2122,43,0,81749
49083,2086,43,0,81759
49083,2086,43,0,81769
49083,2025,43,0,81779
49083,2078,43,0,81789
49084,2064,43,0,81799
49084,2007,43,0,81809
49084,2019,43,0,81819
49084,2005,43,0,81829
49084,2035,43,0,81839
49085,1991,43,0,81849
49085,2109,43,0,81859
49285,2207,43,0,81869
49285,2189,43,0,81879
49285,2177,43,0,81889
49286,2256,43,0,81899
49286,2187,43,0,81909
49286,2288,43,0,81919
49286,2209,43,0,81929
49286,2023,43,0,81939
49287,2071,43,0,81949
49287,1995,43,0,81959
49287,1890,43,0,81969
49287,1897,43,0,81979
49288,1863,43,0,81989
49288,1890,43,0,81999
49288,1915,43,0,82009
49288,1886,43,0,82019
49288,1841,43,0,82029
49289,1901,43,0,82039
49289,1788,43,0,82049
49289,1744,43,0,82059
49493,2482,43,0,82071
49493,3398,51,0,82081
49494,3495,51,0,82091
49494,1407,51,0,82101
49494,2018,51,0,82111
49494,1933,51,0,82121
49495,2016,51,0,82131
49495,1824,51,0,82141
49495,1759,51,0,82151
49496,1781,51,0,82161
49496,1757,51,0,82171
49496,1728,51,0,82181
49496,1744,51,0,82191
49496,1701,51,0,82201
49497,1767,51,0,82211
49497,1701,51,0,82221
49497,1704,51,0,82231
49497,1778,51,0,82241
49497,1692,51,0,82251
49498,1716,51,0,82261
49498,1694,51,0,82271
49694,1889,51,0,82281
49695,1802,51,0,82291
49695,1873,51,0,82301
49695,1870,51,0,82311
49696,1891,51,0,82321
49696,1866,51,0,82331
49696,1826,51,0,82341
49696,1711,51,0,82351
49696,1680,51,0,82361
49697,1581,51,0,82371
49697,1495,51,0,82381
49697,1510,51,0,82391
49697,1472,51,0,82401
49698,1474,51,0,82411
49698,1479,51,0,82421
49698,1491,51,0,82431
49698,1495,51,0,82441
49699,1523,51,0,82451
49699,1523,51,0,82461
49699,1555,51,0,82471
49899,1698,51,0,82481
49900,1739,51,0,82491
49900,1727,51,0,82501
49900,1715,51,0,82511
49900,1710,51,0,82521
49901,1767,51,0,82531
49901,1738,51,0,82541
49901,1560,51,0,82551
49901,1523,51,0,82561
49902,1535,51,0,82571
49902,1575,51,0,82581
49902,1488,51,0,82591
49902,1557,51,0,82601
49902,1504,51,0,82611
49903,1456,51,0,82621
49903,1435,51,0,82631
49903,1370,51,0,82641
49904,1401,51,0,82651
49904,1439,51,0,82661
49904,1457,51,0,82671
50104,1483,51,0,82681
50104,1659,51,0,82691
50105,1583,51,0,82701
50105,1638,51,0,82711
50105,1609,51,0,82721
50105,1555,51,0,82731
50106,1491,51,0,82741
50106,1478,51,0,82751
50106,1296,51,0,82761
50106,1235,51,0,82771
50106,1196,51,0,82781
50107,1201,51,0,82791
50107,1092,51,0,82801
50107,1115,51,0,82811
50107,1103,51,0,82821
50107,1153,51,0,82831
50108,1121,51,0,82841
50108,1104,51,0,82851
50108,1113,51,0,82861
50108,1345,51,0,82871
50109,1922,51,0,82881
50309,2966,51,0,82891
50309,1721,51,0,82901
50310,743,51,0,82911
50310,1353,51,0,82921
50310,1291,51,0,82931
50310,1269,51,0,82941
50310,1209,51,0,82951
50311,1090,51,0,82961
50311,1054,51,0,82971
50311,1136,51,0,82981
50312,1207,51,0,82991
50312,1236,51,0,83001
50312,1296,51,0,83011
50312,1249,51,0,83021
50313,1124,51,0,83031
50313,986,51,0,83041
50313,963,51,0,83051
50313,833,51,0,83061
50314,768,51,0,83071
50314,734,51,0,83081
50514,845,51,0,83091
50515,922,51,0,83101
50515,881,51,0,83111
50515,880,51,0,83121
50515,847,51,0,83131
50516,916,51,0,83141
50516,816,51,0,83151
50516,688,51,0,83161
50516,381,51,0,83171
50517,84,51,0,83181
50517,29,51,0,83191
50517,80,51,0,83201
50517,0,51,0,83211
50517,187,51,0,83221
50518,176,51,0,83231
50518,150,51,0,83241
50518,283,51,0,83251
50518,286,51,0,83261
50518,240,51,0,83271
50519,316,51,0,83281
50519,336,51,0,83291
50718,538,51,0,83301
50719,602,51,0,83311
50719,702,51,0,83321
50719,737,51,0,83331
50719,802,51,0,83341
50720,837,51,0,83351
50720,784,51,0,83361
50720,659,51,0,83371
50720,688,51,0,83381
50721,730,51,0,83391
50721,734,51,0,83401
50721,795,51,0,83411
50721,825,51,0,83421
50722,837,51,0,83431
50722,944,51,0,83441
50722,863,51,0,83451
50722,951,51,0,83461
50722,975,51,0,83471
50723,1017,51,0,83481
50723,1011,51,0,83491
50923,1093,51,0,83501
50924,1474,51,0,83511
50924,1169,51,0,83521
50924,1187,51,0,83531
50924,1184,51,0,83541
50925,1232,51,0,83551
50925,1409,51,0,83561
50925,1120,51,0,83571
50925,1062,51,0,83581
50925,1097,51,0,83591
50925,998,51,0,83601
50926,910,51,0,83611
50926,1008,51,0,83621
50926,912,51,0,83631
50926,917,51,0,83641
50926,987,51,0,83651
50927,1004,51,0,83661
50927,975,51,0,83671
50927,1051,51,0,83681
50927,964,51,0,83691
50927,915,51,0,83701
51041,1392,51,0,83711
51042,2007,51,0,83721
51042,2839,51,0,83731
51043,1889,51,0,83741
51043,720,51,0,83751
51043,1366,51,0,83761
51043,1354,51,0,83771
51043,1177,51,0,83781
51044,1149,51,0,83791
51044,1189,51,0,83801
51044,1162,51,0,83811
51044,1217,51,0,83821
51044,1143,51,0,83831
51044,1014,51,0,83841
51045,1152,51,0,83851
51045,1083,51,0,83861
51045,1187,51,0,83871
51045,1287,51,0,83881
51046,1223,51,0,83891
51046,1328,51,0,83901
51333,1456,51,0,83911
51333,1671,51,0,83921
51333,1680,51,0,83931
51333,1799,51,0,83941
51333,1871,51,0,83951
51334,1795,51,0,83961
51334,1812,51,0,83971
51334,1909,51,0,83981
51334,1890,51,0,83991
51334,1664,51,0,84001
51335,1606,51,0,84011
51335,1514,51,0,84021
51335,1417,51,0,84031
51335,1497,51,0,84041
51336,1391,51,0,84051
51336,1472,51,0,84061
51336,1500,51,0,84071
51336,1495,51,0,84081
51336,1609,51,0,84091
51336,1611,51,0,84101
51337,1621,51,0,84111
51538,1856,51,0,84121
51538,1920,51,0,84131
51538,1904,51,0,84141
51538,1950,51,0,84151
51539,2042,51,0,84161
51539,1986,51,0,84171
51539,2016,51,0,84181
51539,1866,51,0,84191
51539,1904,51,0,84201
51540,1889,51,0,84211
51540,1872,51,0,84221
51540,1924,51,0,84231
51540,1904,51,0,84241
51540,1952,51,0,84251
51541,1951,51,0,84261
51541,1981,51,0,84271
51541,1990,51,0,84281
51541,1987,51,0,84291
51541,2064,51,0,84301
51541,2032,51,0,84311
51742,2198,51,0,84321
51743,2345,51,0,84331
51743,2249,51,0,84341
51743,2291,51,0,84351
51744,2348,51,0,84361
51744,2290,51,0,84371
51744,2320,51,0,84381
51744,2202,51,0,84391
51744,2153,51,0,84401
51745,2001,51,0,84411
51745,2029,51,0,84421
51745,2105,51,0,84431
51745,2059,51,0,84441
51745,2134,51,0,84451
51746,2063,51,0,84461
51746,2009,51,0,84471
51746,2135,51,0,84481
51747,1931,51,0,84491
51747,1878,51,0,84501
51748,1963,51,0,84511
51748,1972,51,0,84521
51850,2151,51,0,84531
51850,2250,51,0,84541
51850,2219,51,0,84551
51851,2253,51,0,84561
51851,2359,51,0,84571
51851,2389,51,0,84581
51851,2427,51,0,84591
51852,2787,51,0,84601
51852,3933,52,0,84611
51852,3632,52,0,84621
51852,1586,52,0,84631
51852,2142,52,0,84641
51852,2181,52,0,84651
51853,2157,52,0,84661
51853,2099,52,0,84671
51853,2079,52,0,84681
51853,2166,52,0,84691
51853,2098,52,0,84701
51854,2119,52,0,84711
51854,2160,52,0,84721
51920,2252,52,0,84731
51920,2369,52,0,84741
51920,2266,52,0,84751
51921,2351,52,0,84761
51921,2339,52,0,84771
51921,2342,52,0,84781
51921,2251,52,0,84791
52152,2250,52,0,84801
52152,2213,52,0,84811
52153,2224,52,0,84821
52153,2154,52,0,84831
52153,2174,52,0,84841
52153,2170,52,0,84851
52154,2151,52,0,84861
52154,1962,52,0,84871
52154,1856,52,0,84881
52154,1874,52,0,84891
52155,1615,52,0,84901
52155,1657,52,0,84911
52155,1453,52,0,84921
52155,1494,52,0,84931
52357,1584,52,0,84941
52360,1719,52,0,84951
52362,1380,52,0,84961
52362,1486,52,0,84971
52362,1634,52,0,84981
52362,1529,52,0,84991
52363,1410,52,0,85001
52363,1191,52,0,85011
52363,1085,52,0,85021
52363,1191,52,0,85031
52363,983,52,0,85041
52364,958,52,0,85051
52365,1037,52,0,85061
52365,720,52,0,85071
52366,786,52,0,85081
52366,678,52,0,85091
52367,897,52,0,85101
52367,736,52,0,85111
52367,797,52,0,85121
52368,747,52,0,85131
52542,944,52,0,85141
52543,1072,52,0,85151
52543,1003,52,0,85161
52543,1088,52,0,85171
52544,1066,52,0,85181
52544,1122,52,0,85191
52544,1101,52,0,85201
52544,997,52,0,85211
52544,913,52,0,85221
52545,994,52,0,85231
52545,986,52,0,85241
52545,959,52,0,85251
52545,941,52,0,85261
52545,855,52,0,85271
52546,886,52,0,85281
52546,971,52,0,85291
52546,912,52,0,85301
52546,912,52,0,85311
52546,942,52,0,85321
52546,949,52,0,85331
52547,996,52,0,85341
52689,1198,52,0,85351
52690,1238,52,0,85361
52690,1319,52,0,85371
52690,1311,52,0,85381
52690,1407,52,0,85391
52690,1319,52,0,85401
52691,1450,52,0,85411
52691,1849,52,0,85421
52691,2711,52,0,85431
52691,2467,52,0,85441
52691,783,52,0,85451
52692,1388,52,0,85461
52692,1345,52,0,85471
52692,1474,52,0,85481
52692,1445,52,0,85491
52692,1456,52,0,85501
52692,1456,52,0,85511
52693,1511,52,0,85521
52693,1578,52,0,85531
52693,1619,52,0,85541
52905,1701,52,0,85551
52905,1854,52,0,85561
52905,1925,52,0,85571
52906,1915,52,0,85581
52906,2017,52,0,85591
52906,2289,52,0,85601
52906,2233,52,0,85611
52906,2123,52,0,85621
52907,2018,52,0,85631
52907,2160,52,0,85641
52907,2071,52,0,85651
52907,2096,52,0,85661
52907,2007,52,0,85671
52907,2008,52,0,85681
52908,2084,52,0,85691
52908,2077,52,0,85701
52908,1893,52,0,85711
52908,1719,52,0,85721
52908,1851,52,0,85731
52908,1659,52,0,85741
52909,1588,52,0,85751
52963,1879,52,0,85761
52963,1623,52,0,85771
52964,1733,52,0,85781
52964,1578,52,0,85791
52964,1579,52,0,85801
52964,1269,52,0,85811
52964,1405,52,0,85821
52965,1369,52,0,85831
52965,1276,52,0,85841
53176,1383,52,0,85851
53177,1409,52,0,85861
53177,1369,52,0,85871
53177,1473,52,0,85881
53177,1397,52,0,85891
53177,1472,52,0,85901
53177,1353,52,0,85911
53178,1135,52,0,85921
53178,1237,52,0,85931
53178,1165,52,0,85941
53178,1090,52,0,85951
53178,1264,52,0,85961
53178,1325,52,0,85971
53178,1488,52,0,85981
53381,1400,52,0,85991
53381,1311,52,0,86001
53381,1465,52,0,86011
53382,1484,52,0,86021
53382,1497,52,0,86031
53382,1557,52,0,86041
53382,1576,52,0,86051
53382,1354,52,0,86061
53383,1387,52,0,86071
53383,1535,52,0,86081
53383,1515,52,0,86091
53383,1466,52,0,86101
53383,1623,52,0,86111
53383,1514,52,0,86121
53383,1535,52,0,86131
53384,1574,52,0,86141
53384,1563,52,0,86151
53384,1633,52,0,86161
53586,1791,52,0,86171
53586,1833,52,0,86181
53586,1908,52,0,86191
53587,1910,52,0,86201
53587,1859,52,0,86211
53587,1882,52,0,86221
53587,2295,52,0,86231
53588,2767,52,0,86241
53588,3735,44,0,86251
53588,1386,44,0,86261
53588,1589,44,0,86271
53588,1724,44,0,86281
53589,1698,44,0,86291
53589,1760,44,0,86301
53589,1686,44,0,86311
53589,1754,44,0,86321
53590,1746,44,0,86331
53590,1744,44,0,86341
53590,1744,44,0,86351
53590,1687,44,0,86361
53790,1707,44,0,86371
53791,1787,44,0,86381
53791,1739,44,0,86391
53791,1822,44,0,86401
53792,1846,44,0,86411
53792,1915,44,0,86421
53792,1875,44,0,86431
53792,1795,44,0,86441
53793,1799,44,0,86451
53793,1819,44,0,86461
53793,1799,44,0,86471
53793,1840,44,0,86481
53794,1832,44,0,86491
53794,1885,44,0,86501
53794,1929,44,0,86511
53794,1712,44,0,86521
53795,1774,44,0,86531
53795,1679,44,0,86541
53795,1631,44,0,86551
53796,1557,44,0,86561
53796,1628,44,0,86571
53995,1774,44,0,86581
53996,1707,44,0,86591
53996,1761,44,0,86601
53996,1757,44,0,86611
53997,1739,44,0,86621
53997,1766,44,0,86631
53997,1662,44,0,86641
53997,1554,44,0,86651
53998,1580,44,0,86661
53998,1535,44,0,86671
53998,1565,44,0,86681
53998,1535,44,0,86691
53999,1486,44,0,86701
53999,1494,44,0,86711
53999,1473,44,0,86721
53999,1501,44,0,86731
54000,1478,44,0,86741
54000,1452,44,0,86751
54000,1424,44,0,86761
54000,1441,44,0,86771
54201,1605,44,0,86781
54201,1568,44,0,86791
54202,1598,44,0,86801
54202,1584,44,0,86811
54202,1643,44,0,86821
54203,1575,44,0,86831
54203,1535,44,0,86841
54203,1390,44,0,86851
54203,1314,44,0,86861
54204,1315,44,0,86871
54204,1152,44,0,86881
54204,1140,44,0,86891
54204,1211,44,0,86901
54205,1199,44,0,86911
54205,1246,44,0,86921
54205,1177,44,0,86931
54205,1265,44,0,86941
54206,1328,44,0,86951
54206,1339,44,0,86961
54206,1247,44,0,86971
54206,1474,44,0,86981
54313,1584,44,0,86991
54313,1535,44,0,87001
54314,1594,44,0,87011
54314,1627,44,0,87021
54314,1616,44,0,87031
54315,1659,44,0,87041
54315,1599,44,0,87051
54315,1515,44,0,87061
54315,1621,44,0,87071
54315,1843,44,0,87081
54316,1779,44,0,87091
54316,2211,44,0,87101
54316,2891,44,0,87111
54316,4087,54,0,87121
54317,1737,54,0,87131
54317,1586,54,0,87141
54318,2032,54,0,87151
54318,1908,54,0,87161
54318,1905,54,0,87171
54319,1904,54,0,87181
54319,2005,54,0,87191
54610,2053,54,0,87201
54610,2125,54,0,87211
54610,2109,54,0,87221
54611,2119,54,0,87231
54611,2093,54,0,87241
54611,2160,54,0,87251
54611,2320,54,0,87261
54612,1879,54,0,87271
54612,1973,54,0,87281
54612,1953,54,0,87291
54612,1919,54,0,87301
54613,2027,54,0,87311
54613,2023,54,0,87321
54613,2047,54,0,87331
54613,2018,54,0,87341
54614,2114,54,0,87351
54614,2160,54,0,87361
54614,2256,54,0,87371
54614,2274,54,0,87381
54614,2265,54,0,87391
54814,2321,54,0,87401
54815,2299,54,0,87411
54815,2177,54,0,87421
54815,2161,54,0,87431
54815,2178,54,0,87441
54816,2218,54,0,87451
54816,2128,54,0,87461
54816,1998,54,0,87471
54816,2002,54,0,87481
54816,2064,54,0,87491
54817,2075,54,0,87501
54817,2143,54,0,87511
54817,2126,54,0,87521
54817,2240,54,0,87531
54818,2217,54,0,87541
54818,2254,54,0,87551
54818,2351,54,0,87561
54819,2354,54,0,87571
54819,2416,54,0,87581
54819,2431,54,0,87591
55005,2707,54,0,87601
55005,2816,54,0,87611
55006,2799,54,0,87621
55006,2929,54,0,87631
55006,2946,54,0,87641
55007,3057,62,0,87651
55007,3095,62,0,87661
55007,2928,62,0,87671
55007,2960,62,0,87681
55007,3090,62,0,87691
55008,3089,62,0,87701
55008,3174,62,0,87711
55008,3328,62,0,87721
55008,3326,62,0,87731
55008,3469,62,0,87741
55009,3515,62,0,87751
55009,3693,62,0,87761
55009,3857,62,0,87771
55009,3869,62,0,87781
55009,4051,62,0,87791
55203,4095,62,0,87801
55203,4095,62,0,87811
55203,4095,62,0,87821
55203,4095,62,0,87831
55204,4095,62,0,87841
55204,4095,62,0,87851
55204,4095,62,0,87861
55204,4095,62,0,87871
55205,4095,62,0,87881
55205,4095,62,0,87891
55206,4095,62,0,87901
55206,4095,62,0,87911
55206,4095,62,0,87921
55206,4095,62,0,87931
55207,4095,62,0,87941
55207,4095,62,0,87951
55207,4095,62,0,87961
55207,4095,62,0,87971
55207,4095,62,0,87981
55208,4095,62,0,87991
55208,4095,62,0,88001
55429,4095,62,0,88011
55430,4095,62,0,88021
55430,4095,62,0,88031
55430,4095,62,0,88041
55431,4095,62,0,88051
55431,4095,62,0,88061
55431,4095,62,0,88071
55431,4095,62,0,88081
55432,4095,62,0,88091
55432,4095,62,0,88101
55432,4095,62,0,88111
55432,4095,62,0,88121
55433,4095,62,0,88131
55433,4095,62,0,88141
55433,4095,62,0,88151
55433,4095,62,0,88161
55434,3979,62,0,88171
55434,3614,62,0,88181
55434,3371,62,0,88191
55434,3454,62,0,88201
55565,3088,62,0,88211
55565,3344,62,0,88221
55565,3056,62,0,88231
55566,3101,62,0,88241
55566,2975,62,0,88251
55567,3063,62,0,88261
55567,3219,62,0,88271
55567,3061,62,0,88281
55568,2942,62,0,88291
55569,2800,62,0,88301
55569,2914,62,0,88311
55569,2767,62,0,88321
55570,2669,62,0,88331
55570,2479,62,0,88341
55571,2209,62,0,88351
55572,1859,62,0,88361
55572,1642,62,0,88371
55573,1381,62,0,88381
55573,1718,62,0,88391
55574,1979,62,0,88401
55574,1975,62,0,88411
55745,2112,62,0,88421
55745,2816,62,0,88431
55746,4095,63,0,88441
55746,4095,63,0,88451
55746,4095,63,0,88461
55746,4095,63,0,88471
55746,4095,63,0,88481
55747,4095,63,0,88491
55747,4095,63,0,88501
55747,4095,63,0,88511
55747,4095,63,0,88521
55748,4095,63,0,88531
55748,4095,63,0,88541
55748,4095,63,0,88551
55748,4095,63,0,88561
55749,1335,63,0,88571
55749,1890,63,0,88581
55749,1951,63,0,88591
55749,1771,63,0,88601
55749,1891,63,0,88611
55950,1835,63,0,88621
55951,1851,63,0,88631
55951,1843,63,0,88641
55951,1840,63,0,88651
55952,1840,63,0,88661
55952,1841,63,0,88671
55952,1840,63,0,88681
55952,1844,63,0,88691
55953,2034,63,0,88701
55953,2690,63,0,88711
55953,3463,63,0,88721
55953,4095,63,0,88731
55954,4095,63,0,88741
55954,4095,63,0,88751
55954,4095,63,0,88761
55955,4095,63,0,88771
55955,4095,63,0,88781
55955,4095,63,0,88791
55955,4095,63,0,88801
55956,4095,63,0,88811
55956,4095,63,0,88821
56152,4095,63,0,88831
56153,4095,63,0,88841
56153,4095,63,0,88851
56153,4095,63,0,88861
56154,4095,63,0,88871
56154,4095,63,0,88881
56154,4095,63,0,88891
56155,4095,63,0,88901
56155,4095,63,0,88911
56155,4095,63,0,88921
56155,4095,63,0,88931
56156,4095,63,0,88941
56156,4095,63,0,88951
56156,4095,63,0,88961
56157,4095,63,0,88971
56157,4095,63,0,88981
56157,4095,63,0,88991
56157,4095,63,0,89001
56157,4095,63,0,89011
56158,4095,63,0,89021
56204,4095,63,0,89031
56204,4095,63,0,89041
56204,4095,63,0,89051
56205,4095,63,0,89061
56205,4095,63,0,89071
56206,4095,63,0,89081
56252,4095,63,0,89091
56253,4095,63,0,89101
56253,4095,63,0,89111
56254,4095,63,0,89121
56254,3537,63,0,89131
56304,2403,63,0,89141
56305,2158,63,0,89151
56306,1880,63,0,89161
