ecg_ts,ecg,bpm,leadOff
30757,4095,0,0
30764,175,0,0
30770,4095,0,0
30777,4095,0,0
30786,0,0,1
30792,4095,0,0
30798,4095,0,0
30804,0,0,0
30816,4095,0,0
30823,0,0,1
30848,0,0,1
30855,4095,0,0
30865,0,0,1
30872,4095,0,0
30883,223,0,0
30890,4095,0,0
30896,4095,0,0
30902,343,0,0
30913,4095,0,0
30922,33,0,0
30930,4095,0,0
30937,4095,0,0
30943,407,0,0
30949,0,0,1
30955,4095,0,0
30961,4095,0,0
30977,4095,0,0
30985,0,0,1
30992,4095,0,0
30998,4095,0,0
31004,0,0,1
31010,4095,0,0
31016,4095,0,0
31022,496,0,0
31033,4095,113,0
31040,4095,113,0
31046,0,0,1
31052,4095,0,0
31058,4095,0,0
31064,0,0,1
31070,4095,0,0
31081,4095,0,0
31088,0,0,1
31095,4095,0,0
31101,4095,0,0
31106,0,0,1
31113,4095,0,0
31119,4095,0,0
31132,4095,0,0
31139,4095,0,0
31145,0,0,1
31151,4095,0,0
31157,4095,0,0
31163,858,0,0
31174,4095,0,0
31183,0,0,1
31190,0,0,1
31197,4095,0,0
31203,751,0,0
31208,0,0,1
31215,4095,0,0
31221,4095,0,0
31233,4095,0,0
31241,4095,0,0
31246,0,0,1
31253,4095,0,0
31259,4095,0,0
31265,0,0,0
31271,4095,0,0
31277,4095,0,0
31293,4095,0,0
31300,4095,0,0
31305,0,0,1
31312,4095,0,0
31318,4095,0,0
31324,0,0,0
31330,0,0,1
31342,492,0,0
31350,4095,0,0
31356,4095,0,0
31362,1136,0,0
31367,0,0,1
31374,4095,0,0
31380,4095,0,0
31386,0,0,1
31402,4095,0,0
31408,0,0,1
31415,4095,0,0
31421,4095,0,0
31426,0,0,1
31433,4095,0,0
31439,4095,0,0
31453,4095,0,0
31461,1312,0,0
31466,0,0,0
31473,4095,0,0
31479,4095,0,0
31485,0,0,0
31491,0,0,1
31502,4095,0,0
31510,0,0,1
31516,4095,0,0
31522,1229,0,0
31527,0,0,1
31534,4095,114,0
31540,4095,114,0
31546,0,0,1
31559,4095,0,0
31566,0,0,1
31572,4095,0,0
31578,4095,0,0
31584,0,0,0
31590,4095,0,0
31599,4095,0,0
31610,0,0,1
31617,4095,0,0
31624,0,0,0
31630,0,0,1
31636,4095,0,0
31642,1455,0,0
31647,0,0,1
31660,4095,0,0
31667,0,0,1
31673,4095,0,0
31679,4095,0,0
31686,0,0,1
31693,4095,0,0
31699,4095,0,0
31708,0,0,1
31723,4095,0,0
31778,4095,0,0
31785,0,0,1
31791,0,0,1
31797,4095,0,0
31804,1955,0,0
31811,0,0,1
31817,4095,0,0
31827,0,0,1
31834,4095,0,0
31840,4095,0,0
31846,0,0,1
31852,4095,0,0
31858,4095,0,0
31864,0,0,0
31876,4095,0,0
31883,1955,0,0
31888,0,0,1
31895,4095,0,0
31901,4095,0,0
31907,0,0,1
31914,4095,0,0
31929,0,0,1
31936,4095,0,0
31943,1856,0,0
31948,0,0,1
31955,4095,0,0
31961,4095,0,0
31966,0,0,1
31973,4095,0,0
31986,0,0,0
31993,4095,0,0
31999,4095,0,0
32009,0,0,1
32016,4095,0,0
32022,2006,0,0
32034,4095,0,0
32042,2033,0,0
32047,0,0,1
32054,4095,116,0
32060,4095,116,0
32066,0,0,1
32072,4095,0,0
32083,2032,0,0
32090,0,0,1
32096,4095,0,0
32102,1911,0,0
32112,0,0,1
32119,4095,0,0
32125,0,0,1
32136,4095,0,0
32143,2103,0,0
32148,0,0,1
32155,4095,0,0
32161,4095,0,0
32166,0,0,1
32173,4095,0,0
32179,4095,0,0
32191,0,0,1
32198,4095,0,0
32205,0,0,0
32213,4095,0,0
32220,4095,0,0
32226,0,0,1
32232,4095,0,0
32243,2303,0,0
32249,0,0,1
32256,4095,0,0
32262,2437,0,0
32267,0,0,1
32274,4095,0,0
32280,4095,0,0
32292,0,0,1
32299,4095,0,0
32305,0,0,0
32312,4095,0,0
32321,2150,0,0
32327,0,0,1
32334,4095,0,0
32347,0,0,1
32354,4095,0,0
32360,4095,0,0
32366,0,0,1
32372,4095,0,0
32378,0,0,1
32384,2519,0,0
32391,0,0,0
32404,0,0,0
32535,4095,0,0
32542,2581,0,0
32547,0,0,1
32554,4095,0,0
32560,4095,0,0
32566,0,0,1
32572,4095,116,0
32585,2829,116,0
32592,4095,0,0
32598,4095,0,0
32604,2822,0,0
32609,0,0,1
32616,4095,0,0
32623,2858,0,0
32637,4095,0,0
32644,0,0,0
32650,0,0,1
32656,4095,0,0
32662,4095,0,0
32667,0,0,1
32674,4095,0,0
32686,0,0,1
32693,4095,0,0
32699,4095,0,0
32705,0,0,0
32711,0,0,1
32717,4095,0,0
32724,0,0,0
32738,4095,0,0
32745,0,0,1
32751,0,0,1
32757,4095,0,0
32763,2919,0,0
32768,0,0,1
32775,4095,0,0
32781,4095,0,0
32794,4095,0,0
32801,4095,0,0
32807,0,0,1
32813,4095,0,0
32819,4095,0,0
32826,0,0,1
32833,4095,0,0
32847,0,0,1
32855,4095,0,0
32862,2999,0,0
32867,0,0,1
32874,4095,0,0
32880,4095,0,0
32886,0,0,1
32892,4095,0,0
32906,0,0,1
32913,4095,0,0
32919,4095,0,0
32925,0,0,0
32934,4095,0,0
32941,4095,0,0
32947,0,0,1
32960,4095,0,0
32967,0,0,1
32973,4095,0,0
32979,4095,0,0
32985,0,0,0
32991,0,0,1
32997,4095,0,0
33003,3344,0,0
33014,4095,0,0
33021,4095,0,0
33027,0,0,1
33033,4095,0,0
33040,4095,0,0
33046,0,0,0
33052,4095,0,0
33067,0,0,1
33074,4095,0,0
33080,4095,0,0
33086,0,0,0
33092,4095,115,0
33098,4095,115,0
33104,0,115,0
33116,4095,0,0
33123,3309,0,0
33129,0,0,1
33136,4095,0,0
33143,3343,0,0
33148,0,0,1
33155,4095,0,0
33161,4095,0,0
33173,4095,0,0
33180,4095,0,0
33187,0,0,1
33193,4095,0,0
33199,4095,0,0
33205,0,0,0
33211,0,0,1
33224,3451,0,0
33231,0,0,0
33238,4095,0,0
33245,0,0,0
33251,0,0,1
33257,4095,0,0
33263,3731,0,0
33268,0,0,1
33282,3429,0,0
33288,0,0,1
33295,4095,0,0
33301,4095,0,0
33307,0,0,1
33313,4095,0,0
33319,4095,0,0
33333,0,0,1
33341,4095,0,0
33347,0,0,1
33354,4095,0,0
33360,4095,0,0
33366,0,0,1
33372,4095,0,0
33385,0,0,0
33392,4095,0,0
33398,4095,0,0
33404,0,0,0
33409,0,0,1
33416,4095,0,0
33422,3823,0,0
33430,0,0,1
33441,4095,0,0
33448,0,0,1
33454,4095,0,0
33460,4095,0,0
33466,0,0,1
33472,4095,0,0
33478,4095,0,0
33492,4095,0,0
33499,4095,0,0
33505,0,0,1
33511,0,0,1
33517,4095,0,0
33523,3950,0,0
33528,0,0,1
33543,4095,0,0
33550,0,0,1
33556,4095,0,0
33562,4067,0,0
33567,0,0,1
33574,4095,0,0
33585,0,0,0
33592,4095,0,0
33598,4095,0,0
33604,0,0,0
33609,0,0,1
33616,4095,116,0
33622,4095,116,0
33627,0,0,1
33639,4095,0,0
33646,0,0,1
33653,4095,0,0
33659,4095,0,0
33665,0,0,0
33671,0,0,1
33677,4095,0,0
33689,0,0,1
33696,4095,0,0
33703,4095,0,0
33708,0,0,1
33715,4095,0,0
33721,4095,0,0
33727,0,0,1
33733,4095,0,0
33748,0,0,1
33755,4095,0,0
33762,4095,0,0
33767,0,0,1
33774,4095,0,0
33780,4095,0,0
33786,0,0,1
33792,4095,0,0
33803,4095,0,0
33809,0,0,1
33816,4095,0,0
33822,4095,0,0
33827,0,0,1
33834,4095,0,0
33840,4095,0,0
33853,0,0,0
33860,4095,0,0
33866,0,0,1
33872,4095,0,0
33878,4095,0,0
33884,4095,0,0
33889,0,0,1
33905,0,0,0
33912,4095,0,0
33918,4095,0,0
33924,756,0,0
33929,0,0,1
33936,4095,0,0
33942,4095,0,0
33948,0,0,1
33964,129,0,0
33971,0,0,1
33977,4095,0,0
33983,4095,0,0
33988,0,0,1
33995,4095,0,0
34001,4095,0,0
34015,4095,0,0
34023,4095,0,0
34028,0,0,1
34035,4095,0,0
34041,4095,0,0
34047,0,0,1
34056,4095,0,0
34067,0,0,1
34074,4095,0,0
34080,4095,0,0
34086,0,0,0
34092,4095,0,0
34098,4095,0,0
34104,0,0,0
34109,0,0,1
34122,4095,0,0
34129,0,0,1
34135,4095,0,0
34141,4095,0,0
34147,0,0,1
34153,4095,0,0
34160,4095,0,0
34167,0,0,1
34180,4095,0,0
34186,0,0,1
34192,4095,112,0
34198,4095,112,0
34204,4095,112,0
34209,0,0,1
34216,4095,0,0
34229,0,0,1
34236,4095,0,0
34243,4095,0,0
34248,0,0,1
34255,4095,0,0
34262,4095,0,0
34268,0,0,1
34275,4095,0,0
34287,0,0,1
34294,4095,0,0
34300,4095,0,0
34306,0,0,1
34312,4095,0,0
34318,4095,0,0
34324,583,0,0
34337,4095,0,0
34344,809,0,0
34349,0,0,1
34356,4095,0,0
34365,4095,0,0
34372,4095,0,0
34380,4095,0,0
34387,0,0,1
34394,4095,0,0
34400,4095,0,0
34406,0,0,1
34412,4095,0,0
34418,4095,0,0
34424,4095,0,0
34434,4095,0,0
34443,4095,0,0
34449,0,0,1
34456,4095,0,0
34463,4095,0,0
34472,4095,0,0
34479,4095,0,0
34493,4095,0,0
34500,4095,0,0
34506,0,0,1
34512,4095,0,0
34518,4095,0,0
34524,496,0,0
34534,4095,0,0
34543,655,0,0
34549,0,0,1
34556,4095,0,0
34562,4095,0,0
34569,0,0,1
34575,4095,0,0
34581,4095,0,0
34592,0,0,1
34599,4095,0,0
34606,0,0,1
34612,4095,0,0
34618,4095,0,0
34624,574,0,0
34629,0,0,1
34640,4095,0,0
34647,0,0,1
34653,4095,0,0
34659,4095,0,0
34665,0,0,1
34672,4095,0,0
34679,4095,0,0
34693,4095,0,0
34700,4095,0,0
34706,0,0,1
34711,4095,0,0
34718,4095,0,0
34724,814,0,0
34729,0,0,1
34742,4095,112,0
34752,4095,0,0
34759,4095,0,0
34766,0,0,1
34772,4095,0,0
34779,4095,0,0
34786,0,0,0
34792,4095,0,0
34800,4095,0,0
34810,0,0,1
34817,4095,0,0
34823,4095,0,0
34828,0,0,1
34835,4095,0,0
34841,4095,0,0
34849,0,0,1
34863,4095,0,0
34870,0,0,1
34877,4095,0,0
34883,4095,0,0
34888,0,0,1
34895,4095,0,0
34906,0,0,1
34913,4095,0,0
34920,4095,0,0
34926,0,0,0
34932,0,0,1
34938,4095,0,0
34944,1082,0,0
34949,0,0,1
34962,4095,0,0
34970,0,0,1
34978,4095,0,0
34985,1123,0,0
34990,0,0,1
34997,4095,0,0
35003,4095,0,0
35009,0,0,1
35022,4095,0,0
35028,0,0,1
35035,4095,0,0
35041,4095,0,0
35047,0,0,1
35053,4095,0,0
35059,4095,0,0
35074,4095,0,0
35088,0,0,1
35094,4095,0,0
35100,4095,0,0
35106,0,0,0
35112,4095,0,0
35118,4095,0,0
35124,1317,0,0
35135,4095,0,0
35142,4095,0,0
35148,0,0,1
35154,4095,0,0
35160,4095,0,0
35166,0,0,0
35172,0,0,1
35185,1310,0,0
35192,4095,0,0
35198,4095,0,0
35204,1365,0,0
35209,0,0,1
35216,4095,0,0
35222,4095,0,0
35235,4095,112,0
35242,4095,112,0
35247,0,0,1
35254,4095,0,0
35260,4095,0,0
35266,0,0,0
35272,0,0,1
35289,0,0,1
35296,4095,0,0
35303,4095,0,0
35308,0,0,1
35315,4095,0,0
35321,4095,0,0
35327,0,0,0
35333,0,0,1
35346,0,0,0
35353,3706,0,0
35359,4095,0,0
35365,1557,0,0
35370,0,0,1
35377,4095,0,0
35391,0,0,1
35399,4095,0,0
35405,1562,0,0
35410,0,0,1
35417,4095,0,0
35423,4095,0,0
35428,0,0,1
35435,4095,0,0
35449,0,0,1
35456,4095,0,0
35463,4095,0,0
35469,0,0,1
35475,4095,0,0
35481,4095,0,0
35489,0,0,1
35496,4095,0,0
35508,0,0,0
35515,4095,0,0
35521,4095,0,0
35527,0,0,0
35533,0,0,1
35539,4095,0,0
35545,1737,0,0
37958,0,0,0
37965,0,0,0
37970,0,0,1
37977,0,0,0
37983,0,0,0
37989,0,0,0
37995,0,0,0
38009,0,0,0
38016,0,0,0
38023,0,0,0
38029,0,0,0
38035,0,0,0
38041,0,0,0
38050,0,0,0
38057,0,0,0
38070,0,0,0
38077,0,0,0
38083,0,0,0
38089,0,0,0
38095,0,0,0
38101,0,0,0
38107,0,0,0
38166,0,0,0
38172,0,0,1
38179,0,0,0
38185,0,0,0
38190,0,0,1
38197,0,0,0
38203,0,0,0
38216,0,0,0
38222,0,0,0
38228,0,0,0
38234,0,0,0
38240,0,0,0
38246,0,0,0
38259,0,0,0
38267,0,0,0
38272,0,0,1
38279,0,0,0
38285,0,0,0
38290,0,0,1
38297,0,0,0
38303,0,0,0
38312,0,0,1
38326,0,0,0
38331,0,0,1
38338,0,0,0
38344,0,0,0
38350,0,0,1
38358,0,0,0
38369,0,0,0
38377,0,0,0
38384,0,0,0
38389,0,0,0
38396,0,0,0
38402,0,0,0
38408,0,0,0
38414,0,0,0
38427,0,0,0
38435,0,0,0
38441,0,0,0
38447,0,0,0
38453,0,0,1
38460,0,0,0
38467,0,0,0
38477,0,0,0
38486,0,0,0
38492,0,0,1
38499,0,0,0
38505,0,0,0
38510,0,0,1
38517,0,0,0
38523,0,0,0
38535,0,0,0
38542,0,0,0
38548,0,0,0
38554,0,0,0
38563,0,0,0
38569,0,0,1
38576,0,0,0
38586,0,0,0
38594,0,0,0
38600,0,0,0
38606,0,0,0
38611,0,0,1
38618,0,0,0
38624,0,0,0
38629,0,0,1
38642,0,0,0
38649,0,0,0
38656,0,0,0
38664,0,0,0
38672,0,0,1
38678,0,0,0
38684,0,0,0
38693,0,0,1
38700,0,0,0
38707,0,0,0
38712,0,0,1
38719,0,0,0
38725,0,0,0
38730,0,0,1
38741,0,0,0
38748,0,0,0
38754,0,0,0
38760,0,0,0
38767,0,0,0
38774,0,0,0
38780,0,0,0
38786,0,0,0
38799,0,0,0
38806,0,0,0
38811,0,0,1
38818,0,0,0
38824,0,0,0
38829,0,0,0
38836,0,0,0
38842,0,0,0
38854,0,0,0
38861,0,0,0
38869,0,0,0
38876,0,0,0
38882,0,0,0
38888,0,0,0
38897,0,0,0
38904,0,0,0
38909,0,0,0
38916,0,0,0
38922,0,0,0
38928,0,0,0
38934,0,0,0
38940,0,0,0
38951,0,0,1
38959,0,0,0
38966,0,0,0
38975,0,0,0
38982,0,0,0
38988,0,0,0
38994,0,0,0
39007,0,0,0
39015,0,0,0
39022,0,0,0
39028,0,0,0
39033,0,0,0
39040,0,0,0
39046,0,0,0
39051,0,0,1
39063,0,0,0
39071,0,0,1
39079,0,0,0
39086,0,0,0
39091,0,0,1
39098,0,0,0
39104,0,0,0
39117,0,0,0
39124,0,0,0
39129,0,0,0
39136,0,0,0
39142,0,0,0
39148,0,0,0
39154,0,0,0
39167,0,0,0
39176,0,0,0
39184,0,0,0
39189,0,0,1
39196,0,0,0
39202,0,0,0
39208,0,0,0
39220,0,0,0
39227,0,0,0
39232,0,0,1
39239,0,0,0
39245,0,0,0
39250,0,0,1
39257,0,0,0
39263,0,0,0
39276,0,0,0
39285,0,0,0
39291,0,0,1
39298,0,0,0
39304,0,0,0
39309,0,0,0
39316,0,0,0
39329,0,0,0
39336,0,0,0
39342,0,0,0
39348,0,0,0
39354,0,0,0
39360,0,0,0
39366,0,0,0
39380,0,0,0
39388,0,0,0
39394,0,0,0
39400,0,0,0
39406,0,0,0
39411,0,0,1
39418,0,0,0
39424,0,0,0
39438,0,0,0
39446,0,0,0
39451,0,0,1
39458,0,0,0
39464,0,0,0
39470,0,0,0
39476,0,0,0
39490,0,0,1
39497,0,0,0
39503,0,0,0
39509,0,0,0
39515,0,0,0
39521,0,0,0
39527,0,0,0
39532,0,0,1
39545,0,0,0
39552,0,0,1
39558,0,0,0
39564,0,0,0
39569,0,0,0
39577,0,0,0
39583,0,0,0
39594,0,0,1
39601,0,0,0
39608,0,0,0
39614,0,0,1
39620,0,0,0
39626,0,0,0
39631,0,0,1
39643,0,0,0
39652,0,0,1
39658,0,0,0
39664,0,0,0
39669,0,0,1
39676,0,0,0
39682,0,0,0
39689,0,0,0
39701,0,0,0
39709,0,0,1
39715,0,0,1
39721,0,0,0
39727,0,0,0
39732,0,0,1
39739,0,0,0
39751,0,0,1
39758,0,0,0
39765,0,0,0
39770,0,0,1
39777,0,0,0
39783,0,0,0
39790,0,0,0
39796,0,0,0
39810,0,0,1
39818,0,0,0
39825,0,0,0
39830,0,0,1
39837,0,0,0
39843,0,0,0
39849,0,0,0
39860,0,0,0
39868,0,0,0
39874,0,0,0
39880,0,0,0
39886,0,0,0
39893,0,0,1
39900,0,0,0
39906,0,0,0
39917,0,0,0
39925,0,0,0
39930,0,0,1
39937,0,0,0
39943,0,0,0
39949,0,0,0
39955,0,0,1
39966,0,0,0
39972,0,0,1
39979,0,0,0
39985,0,0,0
39992,0,0,1
40001,0,0,0
40007,0,0,0
40021,0,0,0
40028,0,0,0
40034,0,0,1
40040,0,0,0
40046,0,0,0
40051,0,0,1
40058,0,0,0
40072,0,0,1
40079,0,0,0
40086,0,0,0
40092,0,0,1
40099,0,0,0
40106,0,0,0
40111,0,0,1
40124,0,0,0
40132,0,0,1
40138,0,0,0
40144,0,0,0
40150,0,0,1
40156,0,0,0
40162,0,0,0
40168,0,0,0
40180,0,0,0
40187,0,0,0
40193,0,0,1
40200,0,0,0
40207,0,0,0
40212,0,0,1
40219,0,0,0
40225,0,0,0
40238,0,0,0
40245,0,0,0
40250,0,0,1
40257,0,0,0
40263,0,0,0
40269,0,0,0
40275,0,0,1
40288,0,0,0
40295,0,0,0
40302,0,0,0
40309,0,0,1
40315,0,0,1
40321,0,0,0
40327,0,0,0
40332,0,0,1
40346,0,0,0
40352,0,0,1
40359,0,0,0
40365,0,0,0
40370,0,0,1
40377,0,0,0
40387,0,0,0
40395,0,0,0
40404,0,0,0
40410,0,0,0
40417,0,0,0
40423,0,0,0
40429,0,0,0
40435,0,0,0
40448,0,0,0
40455,0,0,1
41469,0,0,1
41476,0,0,0
41482,0,0,0
41488,0,0,0
41494,0,0,1
41500,0,0,0
41506,0,0,0
41518,0,0,0
41525,0,0,0
41531,0,0,1
41538,0,0,0
41544,0,0,0
41550,0,0,0
41556,0,0,0
41571,0,0,1
41578,0,0,0
41585,0,0,0
41590,0,0,1
41597,0,0,0
41603,0,0,0
41609,0,0,1
41615,0,0,1
41628,0,0,0
41636,0,0,0
41642,0,0,0
41648,0,0,0
41654,0,0,1
41660,0,0,0
41670,0,0,0
41677,0,0,0
41683,0,0,0
41689,0,0,0
41695,0,0,1
41701,0,0,0
41707,0,0,0
41712,0,0,1
41728,0,0,0
41736,0,0,1
41743,0,0,0
41749,0,0,0
41755,0,0,1
41761,0,0,0
41767,0,0,0
41779,0,0,0
41787,0,0,0
41794,0,0,1
41801,0,0,0
41808,0,0,0
41813,0,0,1
41820,0,0,0
41826,0,0,0
41840,0,0,0
41857,0,0,0
41864,0,0,0
41870,0,0,1
41876,0,0,0
41882,0,0,0
41888,0,0,0
41894,0,0,1
41909,0,0,0
41916,0,0,0
41923,0,0,0
41929,0,0,0
41935,0,0,0
41942,0,0,0
41949,0,0,0
41955,0,0,0
41968,0,0,0
41975,0,0,1
41981,0,0,0
41987,0,0,0
41992,0,0,1
41999,0,0,0
42005,0,0,0
42018,0,0,0
42026,0,0,0
42031,0,0,1
42038,0,0,0
42047,0,0,0
42054,0,0,1
42060,0,0,0
42066,0,0,0
42078,0,0,0
42085,0,0,0
42090,0,0,1
42097,0,0,0
42103,0,0,0
42109,0,0,1
42115,0,0,1
42126,0,0,0
42160,0,0,0
42167,0,0,0
42172,0,0,1
42179,0,0,0
42185,0,0,0
42190,0,0,1
42197,0,0,0
42208,0,0,0
42215,0,0,1
42221,0,0,0
42227,0,0,0
42232,0,0,1
42239,0,0,0
42247,0,0,0
42260,0,0,0
42267,0,0,0
42272,0,0,1
42279,0,0,0
42285,0,0,0
42290,0,0,1
42297,0,0,0
42303,0,0,0
42316,0,0,0
42323,0,0,0
42329,0,0,0
42335,0,0,1
42341,0,0,0
42350,0,0,0
42361,0,0,0
42368,0,0,0
42374,0,0,1
42380,0,0,0
42386,0,0,0
42391,0,0,1
42398,0,0,0
42404,0,0,0
42417,0,0,0
42424,0,0,0
42430,0,0,1
42436,0,0,0
42442,0,0,0
42451,0,0,1
42462,0,0,0
42470,0,0,0
42476,0,0,0
42482,0,0,0
42488,0,0,0
42493,0,0,1
42500,0,0,0
42511,0,0,1
42518,0,0,0
42524,0,0,0
42530,0,0,1
42536,0,0,0
42542,0,0,0
42548,0,0,0
42555,0,0,1
42570,0,0,0
42576,0,0,0
42582,0,0,0
42588,0,0,0
42593,0,0,1
42600,0,0,0
42606,0,0,0
42620,0,0,0
42627,0,0,0
42632,0,0,1
42639,0,0,0
42645,0,0,0
42651,0,0,1
42657,0,0,0
42664,0,0,0
42677,0,0,0
42684,0,0,0
42690,0,0,1
42696,0,0,0
42702,0,0,0
42709,0,0,1
42715,0,0,1
42728,0,0,0
42735,0,0,1
42741,0,0,0
42747,0,0,0
42753,0,0,1
42759,0,0,0
42766,0,0,0
42771,0,0,1
42785,0,0,0
42791,0,0,1
42798,0,0,0
42804,0,0,0
42810,0,0,1
42816,0,0,0
42822,0,0,0
42834,0,0,1
42841,0,0,0
42848,0,0,0
42854,0,0,1
42862,0,0,0
42869,0,0,0
42875,0,0,1
42888,0,0,0
42895,0,0,1
42901,0,0,0
42907,0,0,0
42912,0,0,1
42919,0,0,0
42925,0,0,0
42930,0,0,1
42941,0,0,0
42948,0,0,0
42954,0,0,1
42961,0,0,0
42970,0,0,0
42977,0,0,0
42983,0,0,0
42996,0,0,0
43003,0,0,0
43009,0,0,0
43016,0,0,0
43022,0,0,0
43028,0,0,0
43033,0,0,1
43047,0,0,0
43053,0,0,1
43060,0,0,0
43067,0,0,0
43073,0,0,1
43080,0,0,0
43092,0,0,1
43099,0,0,0
43106,0,0,0
43111,0,0,1
43118,0,0,0
43124,0,0,0
43130,0,0,1
43136,0,0,0
43147,0,0,0
43153,0,0,1
43160,0,0,0
43169,0,0,1
43176,0,0,0
43182,0,0,0
43193,0,0,1
43201,0,0,0
43208,0,0,0
43213,0,0,1
43220,0,0,0
43226,0,0,0
43231,0,0,1
43238,0,0,0
43250,0,0,0
43257,0,0,0
43263,0,0,0
43272,0,0,1
43278,0,0,0
43284,0,0,0
43295,0,0,1
43303,0,0,0
43310,0,0,0
43316,0,0,0
43322,0,0,0
43328,0,0,0
43333,0,0,1
43340,0,0,0
43353,0,0,1
43360,0,0,0
43367,0,0,0
43375,0,0,1
43382,0,0,0
43388,0,0,0
43396,0,0,1
43403,0,0,0
43409,0,0,1
43415,0,0,1
43421,0,0,0
43427,0,0,0
43432,0,0,1
43445,0,0,0
43452,0,0,1
43458,0,0,0
43464,0,0,0
43470,0,0,0
43478,0,0,0
43485,0,0,0
43490,0,0,1
43504,0,0,0
43510,0,0,1
43516,0,0,0
43522,0,0,0
43528,0,0,0
43533,0,0,1
43547,0,0,0
43555,0,0,0
43562,0,0,0
43568,0,0,0
43574,0,0,1
43581,0,0,0
43588,0,0,0
43599,0,0,0
43606,0,0,0
43612,0,0,1
43619,0,0,0
43625,0,0,0
43630,0,0,1
43637,0,0,0
43643,0,0,0
43656,0,0,0
43663,0,0,0
43669,0,0,0
43675,0,0,1
43682,0,0,0
43689,0,0,0
43696,0,0,1
43704,0,0,0
43710,0,0,0
43717,0,0,0
43723,0,0,0
43729,0,0,0
43735,0,0,1
43744,0,0,0
43750,0,0,1
43757,0,0,0
43763,0,0,0
43769,0,0,0
43775,0,0,0
43785,0,0,0
43791,0,0,1
43805,0,0,0
43811,0,0,1
43818,0,0,0
43824,0,0,0
43830,0,0,0
43836,0,0,0
43847,0,0,0
43854,0,0,1
43860,0,0,0
43866,0,0,0
43871,0,0,1
43878,0,0,0
43885,0,0,0
43898,0,0,0
43905,0,0,0
43911,0,0,1
43918,0,0,0
43924,0,0,0
43930,0,0,0
43936,0,0,0
43942,0,0,0
43954,0,0,1
43963,0,0,0
43970,0,0,1
43976,0,0,0
43982,0,0,0
43988,0,0,0
43995,0,0,1
44006,0,0,0
44015,0,0,0
44021,0,0,0
44027,0,0,0
44032,0,0,1
44039,0,0,0
44045,0,0,0
44051,0,0,1
44065,0,0,0
44073,0,0,1
44079,0,0,0
44085,0,0,0
44091,0,0,1
44098,0,0,0
44104,0,0,0
44110,0,0,0
44123,0,0,0
44130,0,0,1
44136,0,0,0
44142,0,0,0
44148,0,0,0
44153,0,0,1
44160,0,0,0
44174,0,0,1
44181,0,0,0
44188,0,0,0
44196,0,0,0
44203,0,0,0
44209,0,0,0
44215,0,0,1
44225,0,0,0
44232,0,0,1
44238,0,0,0
44244,0,0,0
44250,0,0,1
44256,0,0,0
44262,0,0,0
44268,0,0,0
44281,0,0,0
44290,0,0,0
44297,0,0,0
44305,0,0,0
44311,0,0,1
44317,0,0,0
44323,0,0,0
44329,0,0,0
44342,0,0,0
44348,0,0,0
44353,0,0,1
44360,0,0,0
44366,0,0,0
44371,0,0,1
44378,0,0,0
44392,0,0,1
44402,0,0,0
44409,0,0,0
44415,0,0,1
44421,0,0,0
44427,0,0,0
44432,0,0,1
44439,0,0,0
44452,0,0,1
44459,0,0,0
44466,0,0,0
44471,0,0,1
44478,0,0,0
44484,0,0,0
44490,0,0,0
44497,0,0,0
44512,0,0,1
44519,0,0,0
44525,0,0,0
44530,0,0,1
44537,0,0,0
44543,0,0,0
44549,0,0,0
44564,0,0,0
44571,0,0,0
44577,0,0,0
44583,0,0,0
44589,0,0,1
44595,0,0,1
44602,0,0,0
44612,0,0,1
44619,0,0,0
44626,0,0,0
44631,0,0,1
44638,0,0,0
44644,0,0,0
44650,0,0,1
44656,0,0,0
44669,0,0,1
44677,0,0,0
44684,0,0,0
44690,0,0,1
44696,0,0,0
44706,0,0,0
44713,0,0,1
44719,0,0,0
44731,0,0,1
44738,0,0,0
44744,0,0,0
44750,0,0,0
44756,0,0,0
44762,0,0,0
44768,0,0,0
44773,0,0,1
44787,0,0,0
44793,0,0,1
44800,0,0,0
44807,0,0,0
44813,0,0,1
44820,0,0,0
44826,0,0,0
44839,0,0,0
44846,0,0,0
44851,0,0,1
44858,0,0,0
44864,0,0,0
44870,0,0,1
44876,0,0,0
44884,0,0,0
44897,0,0,0
44923,0,0,0
44929,0,0,0
44939,0,0,0
44946,0,0,0
44952,0,0,1
44958,0,0,0
44964,0,0,0
44970,0,0,0
44976,0,0,0
44982,0,0,0
44996,0,0,1
45003,0,0,0
45011,0,0,1
45018,0,0,0
45024,0,0,0
45030,0,0,1
45036,0,0,0
45048,0,0,0
45056,0,0,0
45062,0,0,0
45068,0,0,0
45073,0,0,1
45080,0,0,0
45086,0,0,0
45091,0,0,1
45108,0,0,0
45117,0,0,0
45124,0,0,0
45130,0,0,1
45136,0,0,0
45142,0,0,0
45148,0,0,0
45155,0,0,1
45163,0,0,0
45170,0,0,1
45176,0,0,0
45182,0,0,0
45188,0,0,0
45193,0,0,1
45200,0,0,0
45213,0,0,1
45225,0,0,0
45231,0,0,1
45238,0,0,0
45244,0,0,0
45250,0,0,1
45256,0,0,0
45262,0,0,0
45275,0,0,1
45282,0,0,0
45289,0,0,0
45294,0,0,1
45301,0,0,0
45307,0,0,0
45313,0,0,1
45320,0,0,0
45333,0,0,1
45340,0,0,0
45346,0,0,0
45351,0,0,1
45358,0,0,0
45364,0,0,0
45370,0,0,0
45385,0,0,0
45392,0,0,1
45398,0,0,0
45404,0,0,0
45410,0,0,0
45416,0,0,0
45423,0,0,0
45430,0,0,0
45443,0,0,0
45449,0,0,0
45455,0,0,0
45462,0,0,0
45468,0,0,0
45473,0,0,1
45484,0,0,0
45491,0,0,0
45497,0,0,0
45503,0,0,0
45509,0,0,0
45515,0,0,0
45524,0,0,0
45538,0,0,0
45545,0,0,0
45550,0,0,0
45557,0,0,0
45563,0,0,0
45569,0,0,0
45575,0,0,1
45585,0,0,0
45597,0,0,0
45604,0,0,0
45610,0,0,0
45616,0,0,0
45622,0,0,0
45629,0,0,0
45645,0,0,0
45654,0,0,1
45660,0,0,0
45666,0,0,0
45671,0,0,1
45678,0,0,0
45684,0,0,0
45690,0,0,0
45700,0,0,0
45707,0,0,0
45712,0,0,1
45719,0,0,0
45726,0,0,0
45735,0,0,0
45749,0,0,0
45757,0,0,0
45763,0,0,0
45769,0,0,0
45774,0,0,1
45781,0,0,0
45787,0,0,0
45792,0,0,1
45807,0,0,0
45814,0,0,1
45820,0,0,0
45826,0,0,0
45832,0,0,1
45839,0,0,0
45845,0,0,0
45855,0,0,0
45863,0,0,0
45869,0,0,0
45874,0,0,1
45881,0,0,0
45887,0,0,0
45892,0,0,1
45899,0,0,0
45911,0,0,0
45918,0,0,0
45925,0,0,0
45933,0,0,1
45939,0,0,0
45945,0,0,0
45951,0,0,0
45957,0,0,0
45971,0,0,0
45977,0,0,0
45983,0,0,0
45989,0,0,0
45994,0,0,1
46001,0,0,0
46007,0,0,0
46020,0,0,0
46028,0,0,0
46033,0,0,1
46043,0,0,0
46050,0,0,0
46056,0,0,0
46068,0,0,0
46075,0,0,1
46081,0,0,0
46087,0,0,0
46092,0,0,1
46099,0,0,0
46105,0,0,0
46111,0,0,0
46125,0,0,0
46132,0,0,1
46139,0,0,0
46146,0,0,0
46152,0,0,1
46158,0,0,0
46164,0,0,0
46176,0,0,1
46183,0,0,0
46189,0,0,1
46195,0,0,1
46201,0,0,0
46207,0,0,0
46213,0,0,1
46220,0,0,0
46233,0,0,1
46241,0,0,0
46248,0,0,0
46253,0,0,1
46260,0,0,0
46266,0,0,0
46271,0,0,1
46285,0,0,0
46291,0,0,1
46298,0,0,0
46304,0,0,0
46310,0,0,0
46316,0,0,0
46329,0,0,0
46337,0,0,0
46344,0,0,0
46351,0,0,0
46357,0,0,0
46363,0,0,0
46369,0,0,0
46375,0,0,1
46389,0,0,0
46396,0,0,0
46402,0,0,0
46408,0,0,0
46413,0,0,1
46420,0,0,0
46426,0,0,0
46431,0,0,0
46444,0,0,0
46451,0,0,1
46457,0,0,0
46464,0,0,0
46470,0,0,0
46475,0,0,0
46482,58,0,0
46496,0,0,0
46504,0,0,0
46511,0,0,1
46517,50,0,0
46523,0,0,0
46529,0,0,0
46534,0,0,1
46541,240,0,0
46552,0,0,1
46559,0,0,0
46566,0,0,0
46571,0,0,1
46578,0,0,0
46584,0,0,0
46590,0,0,0
46601,219,0,0
46608,0,0,0
46613,0,0,1
46620,227,0,0
46626,0,0,0
46631,0,0,0
46638,688,0,0
46644,0,0,0
46660,260,0,0
46667,0,0,0
46672,0,0,1
46679,172,0,0
46685,0,0,0
46691,0,0,0
46697,1155,0,0
46708,0,0,0
46714,0,0,1
46721,337,0,0
46727,0,0,0
46732,0,0,1
46739,442,0,0
46745,0,0,0
46761,688,0,0
46768,0,0,0
46773,0,0,1
46780,719,0,0
46786,0,0,0
46791,0,0,0
46798,719,0,0
46811,0,0,0
46818,798,0,0
46825,0,0,0
46830,0,0,0
46837,1981,0,0
46843,0,0,0
46849,0,0,0
46856,2106,0,0
46868,0,0,0
46874,0,0,1
46881,796,0,0
46887,0,0,0
46892,0,0,1
46899,703,0,0
46905,0,0,0
46917,1935,0,0
46924,0,0,0
46930,0,0,0
46936,2137,0,0
46942,809,0,0
46948,0,0,0
46958,2150,0,0
46971,0,0,1
46978,937,0,0
46984,0,0,0
46990,0,0,0
46996,2064,0,0
47002,787,0,0
47008,0,0,0
47019,688,0,0
47026,0,0,0
47031,0,0,0
47038,891,0,0
47044,0,0,0
47050,0,0,0
47057,2305,0,0
47066,0,0,0
47080,857,0,0
47093,0,0,1
47099,1004,0,0
47105,0,0,0
47111,0,0,0
47117,2155,0,0
47123,0,0,0
47129,0,0,0
47139,980,0,0
47146,0,0,0
47151,0,0,1
47158,1971,0,0
47164,0,0,0
47170,0,0,0
47177,2157,0,0
47190,0,0,0
47197,2266,0,0
47203,0,0,0
47209,0,0,0
47214,0,0,1
47221,811,0,0
47227,0,0,0
47232,0,0,1
47245,0,0,0
47252,0,0,1
47258,915,0,0
47266,0,0,0
47272,0,0,1
47279,826,0,0
47285,0,0,0
47298,686,0,0
47305,0,0,0
47310,0,0,0
47317,2826,0,0
47323,0,0,0
47329,0,0,0
47334,0,0,1
47345,0,90,0
47352,0,0,1
47358,2422,0,0
47367,0,0,0
47373,0,0,1
47380,2096,0,0
47386,0,0,0
47394,0,0,1
47402,0,0,0
47409,0,0,0
47414,0,0,1
47421,2193,0,0
47427,0,0,0
47432,0,0,1
47439,2978,0,0
47452,0,0,0
47459,3087,0,0
47466,0,0,0
47475,0,0,0
47482,2469,0,0
47488,0,0,0
47502,2449,0,0
47509,0,0,0
47514,0,0,1
47521,2442,0,0
47527,0,0,0
47532,0,0,1
47539,3313,0,0
47552,0,0,1
47559,3415,0,0
47565,0,0,0
47571,0,0,0
47578,3355,0,0
47584,0,0,0
47590,0,0,0
47603,2831,0,0
47610,0,0,0
47616,4095,0,0
47622,2632,0,0
47628,0,0,0
47633,0,0,1
47640,2827,0,0
47650,0,0,0
47658,3467,0,0
47665,0,0,0
47674,0,0,1
47681,0,0,0
47688,0,0,0
47693,0,0,1
47705,0,0,0
47712,0,0,1
47718,3583,0,0
47724,0,0,0
47730,0,0,0
47736,4095,0,0
47742,2814,0,0
47748,0,0,0
47760,3255,0,0
47768,0,0,0
47776,4095,0,0
47783,0,0,0
47789,0,0,0
47794,0,0,1
47801,2807,0,0
47807,0,0,0
47821,3392,0,0
47828,0,0,0
47833,0,0,1
47840,2720,0,0
47846,0,0,0
47851,0,0,1
47858,3486,93,0
47869,0,93,0
47902,2540,0,0
47908,0,0,0
47913,0,0,1
47920,2559,0,0
47929,0,0,0
47936,4095,0,0
47942,0,0,0
47948,0,0,0
47953,0,0,1
47960,2356,0,0
47966,0,0,0
47971,0,0,0
47987,0,0,0
47995,0,0,1
48001,1392,0,0
48007,0,0,0
48013,0,0,1
48020,0,0,0
48026,0,0,0
48037,0,0,0
48043,0,0,0
48049,0,0,0
48054,0,0,1
48061,0,0,0
48067,0,0,0
48072,0,0,1
48086,0,0,0
48098,0,0,0
48104,0,0,0
48110,0,0,0
48116,0,0,0
48122,0,0,0
48128,0,0,0
48133,0,0,1
48145,0,0,0
48151,0,0,1
48158,0,0,0
48164,0,0,0
48170,0,0,0
48176,0,0,0
48186,0,0,0
48199,0,0,0
48206,0,0,0
48212,0,0,1
48218,0,0,0
48224,0,0,0
48230,0,0,0
48236,0,0,0
48250,0,0,0
48257,0,0,0
48263,0,0,0
48269,0,0,0
48275,0,0,1
48281,0,0,0
48290,0,0,0
48303,0,0,0
48311,0,0,0
48317,0,0,0
48323,0,0,0
48329,0,0,0
48335,0,0,1
48341,0,0,0
48347,0,0,0
48361,0,0,0
48368,0,0,0
48373,0,0,1
48380,0,0,0
48386,0,0,0
48393,0,0,1
48400,0,0,0
48412,0,0,1
48419,0,0,0
48426,0,0,0
48431,0,0,0
48438,0,0,0
48444,0,0,0
48450,0,0,0
48456,0,0,0
48470,0,0,0
48477,0,0,0
48483,0,0,0
48489,0,0,0
48496,0,0,1
48503,0,0,0
48509,0,0,0
48515,0,0,1
48528,0,0,0
48533,0,0,1
48540,0,0,0
48546,0,0,0
48551,0,0,0
48558,0,0,0
48564,0,0,0
48575,0,0,0
48583,0,0,0
48589,0,0,0
48596,0,0,1
48603,0,0,0
48609,0,0,0
48614,0,0,1
48621,0,0,0
48633,0,0,1
48640,0,0,0
48646,0,0,0
48651,0,0,0
48658,0,0,0
48664,0,0,0
48670,0,0,0
48682,0,0,0
48689,0,0,0
48698,0,0,0
48705,0,0,0
48711,0,0,0
48717,0,0,0
48726,0,0,0
48733,0,0,0
48739,0,0,0
48745,0,0,0
48750,0,0,0
48757,0,0,0
48763,0,0,0
48769,0,0,0
48782,0,0,0
48790,0,0,0
48796,0,0,0
48802,0,0,0
48809,0,0,0
48815,0,0,1
48821,0,0,0
48827,0,0,0
48839,0,0,0
48846,0,0,0
48851,0,0,1
48858,0,0,0
48864,0,0,0
48870,0,0,0
48876,0,0,0
48888,0,0,0
48896,0,0,0
48904,0,0,0
48911,0,0,0
48917,0,0,0
48923,0,0,0
48929,0,0,0
48934,0,0,1
48949,0,0,0
48956,0,0,0
48962,158,0,0
48968,0,0,0
48973,0,0,1
48980,110,0,0
48986,0,0,0
48995,0,0,1
49013,0,0,1
49020,118,0,0
49027,0,0,0
49032,0,0,1
49039,0,0,0
49045,0,0,0
49050,0,0,0
49064,0,0,0
49071,0,0,0
49077,0,0,0
49083,0,0,0
49089,0,0,0
49095,0,0,1
49101,64,0,0
49109,0,0,0
49123,0,0,0
49129,0,0,0
49135,0,0,1
49141,233,0,0
49147,0,0,0
49152,0,0,1
49159,0,0,0
49173,0,0,1
49180,338,0,0
49187,0,0,0
49192,0,0,1
49199,0,0,0
49205,0,0,0
49211,0,0,0
49221,505,0,0
49229,0,0,0
49235,0,0,1
49241,344,0,0
49247,0,0,0
49252,0,0,1
49259,431,0,0
49265,0,0,0
49277,0,0,1
49284,0,0,0
49290,0,0,0
49296,256,0,0
49302,527,0,0
49308,0,0,0
49314,0,0,1
49321,0,0,0
49334,0,0,1
49341,656,0,0
49347,0,0,0
49352,0,0,1
49359,0,0,0
49365,0,0,0
49376,0,0,1
49383,0,0,0
49390,0,0,0
49395,480,0,0
49402,603,0,0
49408,0,0,0
49416,228,0,0
49431,0,0,1
49437,563,0,0
49443,0,0,0
49449,0,0,0
49454,0,0,1
49461,412,0,0
49467,0,0,0
49480,621,0,0
49488,0,0,0
49493,0,0,1
49500,351,0,0
49506,0,0,0
49512,0,0,1
49518,450,0,0
