ecg_ts,ecg,bpm,leadOff
1320,4095,0,0
1332,0,0,1
1339,4095,0,0
1345,4095,0,0
1351,0,0,1
1357,4095,0,0
1363,4095,0,0
1369,442,0,0
1375,0,0,0
1391,0,0,1
1398,4095,0,0
1404,4095,0,0
1410,0,0,1
1416,4095,0,0
1422,4095,0,0
1428,4095,0,0
1510,0,0,1
1517,4095,0,0
1523,4095,0,0
1529,422,0,0
1535,0,0,1
1541,4095,0,0
1553,0,0,1
1560,4095,80,0
1566,4095,80,0
1572,0,0,1
1578,4095,0,0
1584,4095,0,0
1590,0,0,1
1598,4095,0,0
1613,0,0,1
1620,4095,0,0
1626,4095,0,0
1632,0,0,1
1638,4095,0,0
1644,4095,0,0
1650,0,0,1
1662,4095,0,0
1670,0,0,1
1676,4095,0,0
1682,4095,0,0
1688,560,0,0
1694,0,0,1
1700,4095,0,0
1707,4095,0,0
1718,4095,0,0
1725,4095,0,0
1731,0,0,1
1737,4095,0,0
1743,4095,0,0
1749,0,0,1
1755,0,0,0
1768,4095,0,0
1776,4095,0,0
1782,4095,0,0
1788,859,0,0
1794,0,0,1
1803,4095,0,0
1810,784,0,0
1822,4095,0,0
1830,959,0,0
1836,4095,0,0
1842,4095,0,0
1848,690,0,0
1854,0,0,1
1860,4095,0,0
1866,4095,0,0
1879,4095,0,0
1886,4095,0,0
1892,0,0,1
1898,4095,0,0
1905,4095,0,0
1913,0,0,1
1919,4095,0,0
1933,0,0,1
1941,4095,0,0
1947,4095,0,0
1953,0,0,1
1959,4095,0,0
1965,4095,0,0
1971,0,0,1
1977,4095,0,0
1991,0,0,0
1997,4095,0,0
2004,4095,0,0
2014,0,0,1
2021,4095,0,0
2027,4095,0,0
2037,4095,0,0
2045,4095,0,0
2051,0,0,1
2057,4095,0,0
2063,4095,0,0
2069,831,0,0
2075,0,0,1
2081,4095,103,0
2093,0,0,1
2101,4095,0,0
2110,0,0,0
2117,4095,0,0
2123,4095,0,0
2129,870,0,0
2135,0,0,1
2146,4095,0,0
2153,0,0,1
2159,4095,0,0
2165,4095,0,0
2171,0,0,0
2177,4095,0,0
2183,4095,0,0
2189,1031,0,0
2203,4095,0,0
2212,0,0,1
2219,4095,0,0
2225,4095,0,0
2231,0,0,0
2237,4095,0,0
2243,4095,0,0
2254,0,0,1
2262,4095,0,0
2268,915,0,0
2274,0,0,1
2280,4095,0,0
2286,4095,0,0
2292,0,0,1
2298,4095,0,0
2314,0,0,1
2322,4095,0,0
2329,927,0,0
2335,0,0,1
2341,4095,0,0
2347,4095,0,0
2353,0,0,1
2366,4095,0,0
2373,0,0,1
2379,4095,0,0
2385,4095,0,0
2391,0,0,1
2397,4095,0,0
2410,529,0,0
2417,0,0,1
2425,4095,0,0
2431,0,0,0
2437,0,0,1
2443,4095,0,0
2449,955,0,0
2455,0,0,1
2465,4095,0,0
2478,4095,0,0
2485,4095,0,0
2491,0,0,0
2497,0,0,1
2503,4095,0,0
2509,0,0,0
2516,4095,0,0
2533,0,0,0
2540,4095,0,0
2546,4095,0,0
2552,0,0,1
2558,4095,0,0
2564,4095,0,0
2570,0,0,0
2585,4095,116,0
2592,0,0,1
2599,4095,0,0
2605,4095,0,0
2611,0,0,0
2621,4095,0,0
2627,4095,0,0
2638,0,0,1
2647,1034,0,0
2654,0,0,1
2660,4095,0,0
2666,4095,0,0
2672,0,0,1
2678,4095,0,0
2684,4095,0,0
2694,0,0,1
2710,0,0,0
2717,4095,0,0
2724,4095,0,0
2731,0,0,0
2737,4095,0,0
2743,4095,0,0
2749,1118,0,0
2760,4095,0,0
2773,0,0,1
2781,4095,0,0
2787,4095,0,0
2793,0,0,1
2799,4095,0,0
2805,4095,0,0
2818,4095,0,0
2825,4095,0,0
2832,0,0,1
2838,4095,0,0
2844,4095,0,0
2850,0,0,0
2856,0,0,1
2862,4095,0,0
2874,0,0,1
2898,4095,0,0
2904,4095,0,0
2910,0,0,0
2916,3966,0,0
2922,4095,0,0
2928,4095,0,0
2940,4095,0,0
2960,4095,0,0
2967,4095,0,0
2973,0,0,1
2979,4095,0,0
2985,4095,0,0
2991,0,0,0
2997,0,0,1
3008,1293,0,0
3015,0,0,1
3030,1215,0,0
3039,4095,0,0
3046,4095,0,0
3052,0,0,1
3058,4095,0,0
3064,4095,0,0
3070,1435,0,0
3076,3467,0,0
3086,4095,0,0
3093,0,0,1
3099,4095,116,0
3105,4095,116,0
3114,0,0,1
3121,4095,0,0
3127,1603,0,0
3145,4095,0,0
3152,0,0,0
3158,4095,0,0
3164,4095,0,0
3170,0,0,0
3176,3676,0,0
3182,4095,0,0
3188,1599,0,0
3201,4095,0,0
3208,1647,0,0
3215,0,0,1
3221,4095,0,0
3227,4095,0,0
3235,0,0,1
3241,4095,0,0
3252,0,0,1
3270,0,0,0
3278,4095,0,0
3285,4095,0,0
3291,0,0,0
3297,3829,0,0
3303,4095,0,0
3309,1522,0,0
3322,4095,0,0
3330,0,0,0
3339,3312,0,0
3346,4095,0,0
3352,0,0,1
3358,4095,0,0
3364,4095,0,0
3370,0,0,0
3385,4095,0,0
3393,0,0,1
3400,4095,0,0
3406,4095,0,0
3412,0,0,1
3418,3440,0,0
3424,4095,0,0
3430,0,0,0
3442,4095,0,0
3449,1690,0,0
3455,0,0,1
3461,4095,0,0
3467,4095,0,0
3473,0,0,1
3479,4095,0,0
3490,1717,0,0
3503,4095,0,0
3510,0,0,0
3516,3556,0,0
3522,4095,0,0
3528,1747,0,0
3534,0,0,1
3547,4095,0,0
3557,3957,0,0
3563,4095,0,0
3569,1555,0,0
3575,0,0,1
3581,4095,0,0
3587,4095,0,0
3593,0,0,1
3607,4095,117,0
3614,0,0,1
3621,4095,0,0
3627,4095,0,0
3634,0,0,1
3644,4095,0,0
3651,0,0,0
3662,4095,0,0
3670,0,0,0
3678,4095,0,0
3684,4095,0,0
3690,0,0,0
3696,0,0,1
3702,4095,0,0
3708,4095,0,0
3721,4095,0,0
3729,0,0,0
3736,0,0,1
3742,4095,0,0
3750,1645,0,0
3757,3046,0,0
3763,4095,0,0
3772,0,0,0
3779,4095,0,0
3785,4095,0,0
3791,0,0,0
3797,3070,0,0
3803,4095,0,0
3809,1908,0,0
3815,0,0,1
3828,4095,0,0
3834,0,0,1
3840,4095,0,0
3849,1763,0,0
3856,0,0,1
3862,4095,0,0
3870,0,0,0
3877,0,0,1
3884,4095,0,0
3890,0,0,0
3896,0,0,1
3902,4095,0,0
3908,2082,0,0
3914,0,0,1
3925,4095,0,0
3932,0,0,1
3938,4095,0,0
3944,4095,0,0
3951,0,0,0
3958,4095,0,0
3964,4095,0,0
3977,0,0,1
3984,4095,0,0
3990,0,0,0
3996,0,0,1
4002,4095,0,0
4008,2062,0,0
4014,0,0,1
4020,4095,0,0
4033,0,0,1
4040,4095,0,0
4046,4095,0,0
4055,0,0,1
4062,4095,0,0
4068,4095,0,0
4079,4095,0,0
4087,2256,0,0
4094,0,0,1
4100,4095,0,0
4106,4095,0,0
4112,0,0,1
4118,4095,117,0
4124,4095,117,0
4136,0,0,1
4143,4095,0,0
4150,2015,0,0
4158,0,0,1
4165,4095,0,0
4171,0,0,0
4177,0,0,0
4188,4095,0,0
4196,0,0,1
4202,4095,0,0
4208,2192,0,0
4214,0,0,1
4220,4095,0,0
4226,4095,0,0
4232,0,0,1
4245,4095,0,0
4253,0,0,1
4261,4095,0,0
4268,2165,0,0
4274,0,0,1
4280,4095,0,0
4286,4095,0,0
4292,0,0,0
4305,0,0,1
4312,0,0,0
4318,0,0,1
4324,4095,0,0
4330,0,0,0
4336,0,0,1
4342,4095,0,0
4356,0,0,1
4363,4095,0,0
4370,0,0,0
4376,0,0,1
4382,4095,0,0
4388,2478,0,0
4394,0,0,1
4406,4095,0,0
4413,0,0,1
4419,4095,0,0
4425,4095,0,0
4431,0,0,0
4437,0,0,1
4443,4095,0,0
4449,2377,0,0
4465,4095,0,0
4472,0,0,1
4478,4095,0,0
4484,4095,0,0
4490,2286,0,0
4496,0,0,1
4502,4095,0,0
4514,0,0,1
4521,4095,0,0
4527,4095,0,0
4533,0,0,1
4539,4095,0,0
4545,4095,0,0
4551,0,0,0
4557,4095,0,0
4572,0,0,1
4579,4095,0,0
4585,4095,0,0
4591,0,0,0
4597,0,0,1
4603,4095,0,0
4609,2192,0,0
4621,4095,0,0
4628,4095,0,0
4635,0,0,1
4642,4095,117,0
4648,2258,117,0
4654,0,0,1
4660,4095,0,0
4668,2521,0,0
4681,4095,0,0
5901,4095,0,0
5909,3109,0,0
5915,0,0,1
5921,4095,0,0
5927,4095,0,0
5933,0,0,1
5939,4095,0,0
5950,0,0,0
5957,0,0,0
5963,4095,0,0
5969,3278,0,0
5975,0,0,1
5981,4095,0,0
5987,4095,0,0
5999,4095,0,0
6006,4095,0,0
6013,0,0,1
6019,4095,0,0
6025,4095,0,0
6031,0,0,0
6037,0,0,0
6050,0,0,0
6057,0,0,0
6063,4095,0,0
6069,3299,0,0
6075,0,0,1
6081,4095,0,0
6087,4095,0,0
6102,4095,0,0
6110,0,0,0
6116,0,0,1
6122,4095,0,0
6128,3426,0,0
6134,0,0,1
6140,4095,0,0
6146,4095,0,0
6157,4095,0,0
6193,0,0,1
6204,4095,0,0
6212,0,0,1
6219,4095,114,0
6225,4095,114,0
6231,0,114,0
6237,0,0,1
6243,4095,0,0
6249,3855,0,0
6261,4095,0,0
6268,3563,0,0
6275,0,0,1
6281,4095,0,0
6287,4095,0,0
6293,0,0,1
6299,4095,0,0
6313,0,0,1
6320,4095,0,0
6326,4095,0,0
6332,0,0,0
6338,4095,0,0
6344,4095,0,0
6350,3765,0,0
6356,0,0,1
6369,3487,0,0
6377,4095,0,0
6383,4095,0,0
6389,3696,0,0
6396,0,0,1
6402,4095,0,0
6409,3634,0,0
6420,4095,0,0
6428,4095,0,0
6434,0,0,1
6440,4095,0,0
6446,4095,0,0
6452,0,0,1
6458,4095,0,0
6468,4095,0,0
6475,0,0,1
6481,4095,0,0
6487,4095,0,0
6493,0,0,1
6499,4095,0,0
6505,4095,0,0
6518,0,0,0
6526,4095,0,0
6532,0,0,1
6538,4095,0,0
6544,4095,0,0
6550,0,0,0
6556,0,0,1
6562,4095,0,0
6574,0,0,1
6581,4095,0,0
6587,4095,0,0
6593,0,0,1
6599,4095,0,0
6605,4095,0,0
6612,0,0,1
6626,4095,0,0
6633,0,0,1
6639,4095,0,0
6645,4095,0,0
6651,0,0,0
6657,0,0,1
6663,4095,0,0
6669,4095,0,0
6680,4095,0,0
6688,4095,0,0
6694,0,0,1
6700,4095,0,0
6706,4095,0,0
6712,0,0,1
6721,4095,0,0
6734,0,0,1
6741,4095,0,0
6747,4095,0,0
6753,0,0,1
6759,4095,0,0
6765,4095,0,0
6771,0,0,0
6777,0,0,1
6788,4065,112,0
6797,4095,0,0
6804,4095,0,0
6810,0,0,0
6819,4095,0,0
6827,4095,0,0
6834,0,0,1
6846,4095,0,0
6853,0,0,1
6859,4095,0,0
6865,4095,0,0
6871,991,0,0
6877,0,0,0
6883,4095,0,0
6889,4095,0,0
6901,4095,0,0
6909,0,0,0
6915,0,0,1
6923,4095,0,0
6930,4095,0,0
6936,0,0,1
6942,4095,0,0
6955,0,0,1
6962,4095,0,0
6968,4095,0,0
6974,0,0,1
6980,4095,0,0
6986,4095,0,0
6992,0,0,1
6998,4095,0,0
7012,0,0,1
7019,4095,0,0
7026,4095,0,0
7033,0,0,1
7039,4095,0,0
7045,4095,0,0
7056,0,0,1
7064,4095,0,0
7071,0,0,0
7077,0,0,1
7083,4095,0,0
7089,4095,0,0
7095,0,0,1
7101,4095,0,0
7112,0,0,1
7120,4095,0,0
7127,4095,0,0
7134,0,0,1
7141,4095,0,0
7147,4095,0,0
7153,0,0,1
7159,4095,0,0
7172,0,0,1
7179,0,0,0
7185,4095,0,0
7191,0,0,0
7197,0,0,1
7203,4095,0,0
7209,4095,0,0
7222,4095,0,0
7230,4095,0,0
7237,0,0,1
7243,4095,0,0
7249,4095,0,0
7255,0,0,1
7261,4095,0,0
7273,0,0,1
7281,4095,113,0
7287,4095,113,0
7293,0,0,1
7299,4095,0,0
7305,4095,0,0
7311,0,0,1
7317,0,0,1
7331,176,0,0
7338,4095,0,0
7344,4095,0,0
7350,4095,0,0
7356,0,0,1
7362,4095,0,0
7368,4095,0,0
7381,4095,0,0
7388,4095,0,0
7395,0,0,1
7401,4095,0,0
7407,4095,0,0
7413,0,0,1
7419,4095,0,0
7425,4095,0,0
7441,4095,0,0
7448,4095,0,0
7454,0,0,1
7460,4095,0,0
7466,4095,0,0
7472,0,0,1
7478,4095,0,0
7492,0,0,0
7499,4095,0,0
7505,4095,0,0
7511,0,0,0
7517,0,0,1
7523,4095,0,0
7529,233,0,0
7541,4095,0,0
7549,4095,0,0
7555,0,0,1
7561,4095,0,0
7567,4095,0,0
7573,0,0,1
7579,4095,0,0
7585,4095,0,0
7597,0,0,1
7604,4095,0,0
7611,46,0,0
7617,0,0,0
7623,4095,0,0
7629,76,0,0
7639,4095,0,0
7651,0,0,1
7658,4095,0,0
7664,4095,0,0
7670,4095,0,0
7676,0,0,1
7682,4095,0,0
7688,4095,0,0
7694,0,0,1
7707,4095,0,0
7714,0,0,1
7721,4095,0,0
7727,4095,0,0
7733,0,0,1
7741,4095,0,0
7748,4095,0,0
7760,4095,0,0
7767,4095,0,0
7773,0,0,1
7779,4095,0,0
7785,4095,0,0
7791,256,0,0
7797,0,0,0
7803,4095,113,0
7818,0,0,1
7825,4095,0,0
7832,291,0,0
7838,4095,0,0
7847,4095,0,0
7854,0,0,1
7860,4095,0,0
7868,4095,0,0
7875,0,0,1
7881,4095,0,0
7887,4095,0,0
7894,0,0,1
7900,4095,0,0
7906,4095,0,0
7917,4095,0,0
7925,4095,0,0
7931,541,0,0
7937,0,0,0
7945,4095,0,0
7952,0,0,1
7958,4095,0,0
7968,4095,0,0
7975,0,0,1
7981,4095,0,0
7987,4095,0,0
7993,0,0,1
7999,4095,0,0
8005,4095,0,0
8011,607,0,0
8023,4095,0,0
8030,4095,0,0
8036,0,0,1
8042,4095,0,0
8049,4095,0,0
8056,0,0,1
8062,4095,0,0
8068,4095,0,0
8081,4095,0,0
8088,4095,0,0
8094,0,0,1
8100,4095,0,0
8106,4095,0,0
8112,609,0,0
8118,4095,0,0
8129,4095,0,0
8136,0,0,1
8143,4095,0,0
8151,433,0,0
8158,4095,0,0
8164,4095,0,0
8170,697,0,0
8180,4095,0,0
8188,4095,0,0
8194,0,0,1
8200,4095,0,0
8206,4095,0,0
8212,0,0,1
8218,4095,0,0
8224,4095,0,0
8236,0,0,1
8243,4095,0,0
8252,0,0,1
8259,4095,0,0
8265,4095,0,0
8271,825,0,0
8281,4095,0,0
8289,4095,0,0
8295,0,0,1
8301,4095,114,0
8307,4095,114,0
8313,0,0,1
8319,4095,0,0
8330,4095,0,0
8338,4095,0,0
8345,4095,0,0
8352,831,0,0
8361,4095,0,0
8368,4095,0,0
8374,0,0,0
8384,4095,0,0
8392,0,0,0
8398,4095,0,0
8404,4095,0,0
8410,900,0,0
8416,0,0,1
8422,4095,0,0
8428,4095,0,0
8439,4095,0,0
8447,4095,0,0
8457,0,0,1
8464,4095,0,0
8471,4095,0,0
8477,0,0,1
8483,4095,0,0
8493,0,0,0
8500,4095,0,0
8507,4095,0,0
8513,0,0,0
8519,4095,0,0
8525,4095,0,0
8531,1097,0,0
8537,0,0,1
8550,4095,0,0
8557,0,0,0
8563,4095,0,0
8570,1134,0,0
8576,0,0,1
8582,4095,0,0
8588,4095,0,0
8601,0,0,1
8608,4095,0,0
8615,0,0,1
8621,4095,0,0
8627,4095,0,0
8633,0,0,0
8639,4095,0,0
8648,4095,0,0
8656,0,0,1
8663,4095,0,0
8671,1190,0,0
8677,0,0,0
8683,4095,0,0
8689,4095,0,0
8695,0,0,1
8706,4095,0,0
8713,0,0,1
8719,0,0,1
8725,4095,0,0
8731,1182,0,0
8737,0,0,1
8748,4095,0,0
8756,0,0,1
8765,4095,0,0
8773,0,0,0
8779,0,0,1
8785,4095,0,0
8791,1312,0,0
8797,0,0,1
8809,1202,0,0
8817,0,0,1
8869,4095,0,0
8877,0,0,1
8883,4095,0,0
8889,1648,0,0
8896,0,0,1
8905,4095,0,0
8984,4095,0,0
8991,1680,0,0
8997,0,0,1
9003,4095,0,0
9009,4095,0,0
9016,0,0,1
9022,4095,0,0
9035,0,0,0
9042,4095,0,0
9048,4095,0,0
9054,0,0,1
9060,0,0,1
9066,4095,0,0
9079,0,0,0
9086,4095,0,0
9092,0,0,0
9098,0,0,1
9104,4095,0,0
9110,1632,0,0
9116,0,0,1
9122,4095,0,0
9132,1337,0,0
9139,4095,0,0
9146,4095,0,0
9152,1648,0,0
9158,0,0,1
9164,4095,0,0
9171,1642,0,0
9187,4095,0,0
9194,0,0,1
9200,4095,0,0
9206,4095,0,0
9212,0,0,0
9218,0,0,1
9224,4095,0,0
9233,0,0,0
9240,4095,0,0
9247,4095,0,0
9253,0,0,1
9259,3248,0,0
9265,4095,0,0
9271,4095,0,0
9278,0,0,1
9291,1919,0,0
9297,0,0,1
9303,4095,0,0
9309,4095,0,0
9315,0,0,1
9321,4095,0,0
9327,4095,0,0
9338,0,0,1
9345,4095,117,0
9351,1838,117,0
9357,0,0,1
9363,4095,0,0
9369,4095,0,0
9379,0,0,1
9386,4095,0,0
9401,4095,0,0
9408,4095,0,0
9414,0,0,1
9420,4095,0,0
9426,4095,0,0
9432,0,0,0
9438,0,0,1
9447,4095,0,0
9482,4095,0,0
9489,4095,0,0
9500,4095,0,0
9508,4095,0,0
9514,0,0,1
9520,4095,0,0
9526,4095,0,0
9532,2035,0,0
9538,0,0,1
9544,4095,0,0
9557,0,0,1
9564,4095,0,0
9570,1984,0,0
9576,0,0,1
9584,4095,0,0
9592,0,0,0
9598,0,0,1
9604,4095,0,0
9620,4095,0,0
9627,4095,0,0
9633,0,0,0
9639,0,0,1
9645,4095,0,0
9651,2163,0,0
9657,0,0,1
9667,4095,0,0
9688,4095,0,0
9695,0,0,1
9701,4095,0,0
9707,4095,0,0
9717,0,0,1
9724,4095,0,0
9730,3339,0,0
9736,0,0,1
9742,4095,0,0
9748,4095,0,0
9754,0,0,1
9765,4095,0,0
9773,0,0,1
9780,4095,0,0
9790,4095,0,0
9797,0,0,1
9803,4095,0,0
9809,4095,0,0
9823,4095,0,0
9829,4095,0,0
9835,0,0,1
9841,4095,0,0
9847,4095,0,0
9853,0,0,1
9859,0,0,0
9872,0,116,0
9879,0,0,1
9885,4095,0,0
9892,0,0,0
9899,0,0,1
9905,4095,0,0
9917,0,0,1
9924,4095,0,0
9931,2339,0,0
9937,0,0,1
9943,4095,0,0
9949,4095,0,0
9955,0,0,1
9967,4095,0,0
9974,0,0,1
9981,4095,0,0
9987,4095,0,0
9994,0,0,1
10001,4095,0,0
10007,0,0,0
10019,0,0,1
10026,4095,0,0
10032,0,0,0
10038,0,0,1
10044,4095,0,0
10050,2515,0,0
10056,0,0,1
10068,4095,0,0
10075,0,0,1
10081,4095,0,0
10087,4095,0,0
10096,0,0,1
10104,4095,0,0
10110,2596,0,0
10121,4095,0,0
10129,4095,0,0
10135,0,0,1
10142,4095,0,0
10148,4095,0,0
10154,0,0,1
10160,4095,0,0
10170,4095,0,0
10178,0,0,1
10184,4095,0,0
10190,2672,0,0
10198,0,0,1
10205,4095,0,0
10211,2592,0,0
10219,0,0,0
10226,4095,0,0
10232,2559,0,0
10238,0,0,1
10244,4095,0,0
10250,2663,0,0
10256,0,0,1
10262,4095,0,0
10274,0,0,0
10282,4095,0,0
10289,4095,0,0
10295,0,0,1
10303,4095,0,0
10310,4095,0,0
10316,0,0,1
10322,4095,0,0
10335,0,0,1
10341,4095,0,0
10347,4095,0,0
10353,0,0,0
10359,0,0,1
10365,4095,0,0
10371,2896,0,0
10383,4095,116,0
10390,2669,116,0
10397,0,0,1
10404,4095,0,0
10412,0,0,0
10418,0,0,1
10424,4095,0,0
10434,0,0,1
10441,4095,0,0
10447,4095,0,0
10453,0,0,0
10459,0,0,1
10465,4095,0,0
10471,2875,0,0
10477,0,0,1
10490,2704,0,0
10497,0,0,1
10505,4095,0,0
10512,0,0,0
10518,0,0,1
10524,4095,0,0
10535,0,0,1
10543,4095,0,0
10549,4095,0,0
10555,0,0,1
10561,4095,0,0
10567,4095,0,0
10573,0,0,0
10579,0,0,0
10592,0,0,0
10599,0,0,0
10607,4095,0,0
10614,0,0,0
10620,4095,0,0
10626,4095,0,0
10632,0,0,0
10645,4095,0,0
10652,0,0,0
10658,0,0,1
10664,4095,0,0
10670,2945,0,0
10676,0,0,1
10682,4095,0,0
10694,0,0,0
10702,4095,0,0
10711,2768,0,0
10718,0,0,1
10724,4095,0,0
10730,2973,0,0
10736,0,0,1
10742,4095,0,0
10754,0,0,1
10761,4095,0,0
10767,4095,0,0
10773,0,0,0
10779,0,0,0
10785,4095,0,0
10791,3063,0,0
10801,4095,0,0
10820,4095,0,0
10827,4095,0,0
10833,0,0,0
10839,0,0,1
10845,4095,0,0
10851,3314,0,0
10864,4095,0,0
10871,3116,0,0
10877,0,0,1
10883,4095,0,0
10889,4095,0,0
10895,0,0,1
10901,4095,0,0
10907,4095,0,0
10919,0,0,1
10926,4095,0,0
10932,0,0,0
10938,0,0,1
10944,4095,113,0
10950,3280,113,0
10956,0,0,1
10966,4095,0,0
10978,0,0,1
10984,4095,0,0
10990,3219,0,0
10996,0,0,1
11002,4095,0,0
11009,4095,0,0
11021,4095,0,0
11029,4095,0,0
11035,0,0,1
11041,4095,0,0
11047,4095,0,0
11053,0,0,0
11059,0,0,1
11067,4095,0,0
11074,0,0,1
11080,4095,0,0
11086,4095,0,0
11092,0,0,0
11098,0,0,1
11104,4095,0,0
11110,3563,0,0
11125,4095,0,0
11132,0,0,0
11138,0,0,1
11144,4095,0,0
11150,3458,0,0
11156,0,0,1
11162,4095,0,0
11176,0,0,1
11183,4095,0,0
11190,3416,0,0
11196,0,0,1
11202,4095,0,0
11208,4095,0,0
11214,0,0,1
11222,4095,0,0
11235,0,0,0
11242,4095,0,0
11248,4095,0,0
11254,0,0,1
11260,4095,0,0
11266,4095,0,0
11272,0,0,0
11285,4095,0,0
11292,0,0,0
11298,0,0,1
11304,4095,0,0
11310,3522,0,0
11316,0,0,1
11325,4095,0,0
11339,0,0,1
11346,4095,0,0
11352,3613,0,0
11358,0,0,1
11364,4095,0,0
11370,3686,0,0
11376,0,0,1
11386,4095,0,0
11393,0,0,1
11400,4095,0,0
11406,4095,0,0
11412,0,0,0
11418,0,0,1
11426,4095,0,0
11438,0,0,1
11445,4095,0,0
11452,0,0,0
11458,0,0,1
11464,4095,113,0
11470,3757,113,0
11476,0,0,1
11482,4095,0,0
11495,0,0,0
11501,4095,0,0
11507,4095,0,0
11513,0,0,0
11519,0,0,1
11529,4095,0,0
11538,0,0,1
11545,4095,0,0
11551,3817,0,0
11557,0,0,1
11563,4095,0,0
11569,4095,0,0
11575,0,0,1
11581,4095,0,0
11594,0,0,1
11601,4095,0,0
11607,4095,0,0
11613,0,0,0
11619,0,0,1
11625,4095,0,0
11638,0,0,1
11646,4095,0,0
11652,0,0,0
11658,0,0,1
11664,4095,0,0
11670,4095,0,0
11676,0,0,1
11687,4095,0,0
11695,0,0,1
11702,4095,0,0
11708,4095,0,0
11714,0,0,0
11720,4095,0,0
11726,4095,0,0
11739,0,0,1
11747,4095,0,0
11754,0,0,1
11760,4095,0,0
11766,4095,0,0
11772,0,0,0
11778,0,0,1
11784,4095,0,0
11795,0,0,1
11803,4095,0,0
11809,4095,0,0
11815,0,0,1
11821,4095,0,0
11827,4095,0,0
11836,0,0,1
11843,4095,0,0
11856,0,0,1
11863,4095,0,0
11869,4095,0,0
11875,0,0,1
11881,4095,0,0
11887,4095,0,0
11894,0,0,1
11952,0,0,0
11959,0,0,1
11965,4095,0,0
11971,4095,0,0
11977,0,0,1
11983,4095,113,0
11995,0,0,1
12002,4095,0,0
12009,4095,0,0
12016,0,0,1
12022,4095,0,0
12028,4095,0,0
12034,0,0,1
12042,4095,0,0
12056,0,0,1
13908,4095,0,0
13915,0,0,1
13921,0,0,1
13927,4095,0,0
13933,1901,0,0
13939,0,0,1
13945,4095,0,0
13957,0,0,0
13964,4095,0,0
13970,4095,0,0
13976,0,0,0
13982,4095,0,0
13991,2003,0,0
13998,0,0,1
14012,1394,0,0
14019,2974,0,0
14026,4095,0,0
14032,1787,0,0
14038,0,0,1
14044,4095,0,0
14050,4095,0,0
14061,4095,115,0
14068,4095,115,0
14074,0,115,0
14080,0,0,1
14089,4095,0,0
14096,0,0,1
14108,4095,0,0
14116,0,0,1
14122,4095,0,0
14128,4095,0,0
14134,0,0,0
14140,0,0,1
14146,4095,0,0
14153,1914,0,0
14166,4095,0,0
14173,1934,0,0
14179,0,0,1
14185,4095,0,0
14193,2079,0,0
14200,0,0,1
14206,4095,0,0
14212,2014,0,0
14227,4095,0,0
14234,0,0,0
14240,0,0,1
14246,4095,0,0
14252,2112,0,0
14258,0,0,1
14264,4095,0,0
14275,0,0,0
14310,4095,0,0
14316,0,0,0
14329,4095,0,0
14335,0,0,0
14341,0,0,0
14347,4095,0,0
14353,2204,0,0
14359,0,0,1
14365,4095,0,0
14378,0,0,1
14385,4095,0,0
14391,4095,0,0
14397,0,0,1
14404,4095,0,0
14410,4095,0,0
14422,0,0,1
14429,4095,0,0
14435,0,0,1
14441,0,0,1
14447,4095,0,0
14453,2288,0,0
14459,0,0,1
14465,4095,0,0
14478,0,0,1
14484,4095,0,0
14490,4095,0,0
14498,0,0,1
14505,4095,0,0
14511,4095,0,0
14523,4095,0,0
14530,4095,0,0
14537,0,0,1
14543,4095,0,0
14549,4095,0,0
14555,0,0,0
14561,0,0,1
14567,4095,0,0
14580,0,0,1
14586,4095,115,0
14592,4095,0,0
14599,0,0,1
14608,4095,0,0
14615,0,0,0
14621,0,0,0
14633,4095,0,0
15921,0,0,1
15928,4095,0,0
15935,0,0,1
15942,4095,0,0
15948,4095,0,0
15954,4095,0,0
15964,4095,0,0
15972,4095,0,0
15979,0,0,1
15985,4095,0,0
15991,4095,0,0
15997,4095,0,0
16003,4095,0,0
16009,4095,0,0
16022,0,0,1
16030,4095,0,0
16039,0,0,1
16046,4095,0,0
16052,4095,0,0
16058,0,0,1
16064,4095,0,0
16070,4095,0,0
16083,0,0,1
16090,4095,0,0
16096,4095,0,0
16102,4095,0,0
16108,4095,0,0
16114,4095,0,0
16120,0,0,1
16131,4095,0,0
16160,0,0,1
16166,4095,0,0
16172,4095,0,0
16182,4095,0,0
16189,4095,0,0
16195,4095,0,0
16201,0,0,0
16207,4095,0,0
16213,4095,0,0
16219,0,0,1
16225,4095,0,0
16237,0,0,1
16246,4095,0,0
16253,4095,0,0
16259,0,0,1
16265,4095,0,0
16271,4095,0,0
16277,4095,0,0
16290,4095,0,0
16297,0,0,1
16303,4095,0,0
16309,4095,0,0
16315,4095,0,0
16321,4095,0,0
16328,4095,0,0
16334,4095,0,0
16344,4095,0,0
16352,4095,0,0
16359,0,0,1
16366,4095,0,0
16372,4095,0,0
16381,0,0,1
16395,4095,0,0
16402,4095,0,0
16408,4095,0,0
16414,4095,0,0
16420,0,0,1
16426,4095,0,0
16432,4095,0,0
16451,4095,0,0
16459,0,0,1
16465,4095,0,0
16471,4095,0,0
16477,4095,0,0
16483,4095,0,0
16489,4095,0,0
16495,4095,0,0
16506,4095,0,0
16513,4095,0,0
16519,0,0,1
16525,4095,0,0
16531,4095,0,0
16537,4095,0,0
16546,4095,0,0
16560,0,0,1
16566,4095,0,0
16572,4095,0,0
16578,0,0,1
16584,4095,0,0
16590,4095,0,0
16596,4095,0,0
16611,4095,0,0
16619,0,0,1
16626,4095,0,0
16632,4095,0,0
16638,0,0,1
16644,4095,0,0
16651,4095,0,0
16663,4095,0,0
16671,4095,0,0
16678,0,0,1
16684,4095,0,0
16690,4095,0,0
16696,4095,0,0
16702,4095,0,0
16708,4095,0,0
16723,0,0,0
16730,4095,0,0
16736,4095,0,0
16742,4095,0,0
16752,4095,0,0
16759,0,0,1
16773,4095,0,0
16781,4095,0,0
16788,4095,0,0
16794,4095,0,0
16800,0,0,1
16806,4095,0,0
16812,4095,0,0
16818,0,0,1
16830,4095,0,0
16838,4095,0,0
16846,4095,0,0
16855,4095,0,0
16864,4095,0,0
16871,4095,0,0
16877,4095,0,0
16883,4095,0,0
16894,4095,0,0
16908,4095,0,0
16915,4095,0,0
16921,0,0,1
16927,4095,0,0
16933,4095,0,0
16939,0,0,1
16945,4095,0,0
16951,4095,0,0
16966,4095,0,0
16974,4095,0,0
16983,4095,0,0
16991,4095,0,0
16997,4095,0,0
17003,4095,0,0
17009,4095,0,0
17023,4095,0,0
17032,4095,0,0
17039,0,0,1
17045,4095,0,0
17051,4095,0,0
17060,0,0,1
17067,4095,0,0
17073,4095,0,0
17084,4095,0,0
17091,4095,0,0
17097,0,0,1
17103,4095,0,0
17109,4095,0,0
17115,4095,0,0
17121,0,0,1
17132,4095,0,0
17139,0,0,1
17145,4095,0,0
17151,4095,0,0
17158,4095,0,0
17167,4095,0,0
17174,4095,0,0
17188,4095,0,0
17196,4095,0,0
17202,4095,0,0
17208,4095,0,0
17214,4095,0,0
17220,0,0,1
17226,4095,0,0
17238,4095,0,0
17245,4095,0,0
17252,4095,0,0
17258,0,0,1
17265,4095,0,0
17272,4095,0,0
17278,4095,0,0
17284,4095,0,0
17299,0,0,1
17307,4095,0,0
17314,4095,0,0
17320,0,0,1
17326,4095,0,0
17332,4095,0,0
17338,0,0,1
17348,4095,0,0
17356,4095,0,0
17363,4095,0,0
17372,4095,0,0
17379,0,0,1
17385,4095,0,0
17391,4095,0,0
17397,4095,0,0
17412,4095,0,0
17500,0,0,1
17507,4095,0,0
17513,4095,0,0
17519,0,0,1
17525,4095,0,0
17531,4095,0,0
17537,4095,0,0
17548,4095,0,0
17555,4095,0,0
17561,4095,0,0
17568,4095,0,0
17577,0,0,1
17584,4095,0,0
17596,4095,0,0
17604,4095,0,0
17610,4095,0,0
17616,4095,0,0
17622,0,0,1
17628,4095,0,0
17634,0,0,1
17645,4095,0,0
17652,4095,0,0
17659,0,0,1
17666,4095,0,0
17675,4095,0,0
17682,0,0,1
17688,4095,0,0
17696,4095,0,0
17708,4095,0,0
18929,4095,0,0
18936,4095,0,0
18942,0,0,1
18948,4095,0,0
18954,4095,0,0
18959,0,0,1
18966,4095,0,0
18978,4095,0,0
18985,4095,0,0
18991,4095,0,0
18997,0,0,1
19004,0,0,1
19012,4095,0,0
19021,0,0,1
19028,4095,0,0
19034,4095,0,0
19039,0,0,1
19046,4095,0,0
19052,4095,0,0
19058,0,0,1
19064,4095,0,0
19080,0,0,1
19087,4095,0,0
19094,4095,0,0
19100,0,0,1
19106,4095,0,0
19113,4095,0,0
19119,0,0,1
19125,4095,0,0
19139,0,0,1
19145,4095,0,0
19151,4095,0,0
19157,4095,0,0
19163,0,0,1
19169,4095,0,0
19175,4095,0,0
19190,4095,0,0
19198,4095,0,0
19204,4095,0,0
19210,4095,0,0
19217,0,0,1
19222,0,0,1
19229,4095,0,0
19240,0,0,1
19247,4095,0,0
19253,4095,0,0
19259,0,0,1
19265,4095,0,0
19271,4095,0,0
19277,0,0,1
19282,0,0,1
19295,4095,0,0
19302,0,0,1
19309,4095,0,0
19318,0,0,1
19325,4095,0,0
19331,4095,0,0
19337,0,0,1
19342,0,0,1
19359,0,0,1
19365,4095,0,0
19371,4095,0,0
19377,0,0,1
19382,0,0,1
19389,4095,0,0
19395,4095,0,0
19406,4095,0,0
19447,4095,0,0
19457,0,0,1
19465,4095,0,0
19471,4095,0,0
19477,0,0,1
19482,0,0,1
19489,4095,0,0
19495,0,0,1
19500,0,0,1
19516,0,0,1
19523,0,0,1
19529,4095,0,0
19535,4095,0,0
19540,0,0,1
19547,4095,0,0
19553,4095,0,0
19559,0,0,1
19572,4095,0,0
19579,0,0,1
19585,4095,0,0
19591,4095,0,0
19597,0,0,1
19602,0,0,1
19613,4095,0,0
19621,0,0,1
19628,4095,0,0
19634,4095,0,0
19639,0,0,1
19646,4095,0,0
19652,4095,0,0
19658,0,0,1
19669,4095,0,0
19682,0,0,1
19689,4095,0,0
19695,0,0,1
19700,0,0,1
19707,4095,0,0
19713,4095,0,0
19721,0,0,1
19733,4095,0,0
19740,0,0,1
19746,4095,0,0
19752,4095,0,0
19758,0,0,1
19764,4095,0,0
19770,4095,0,0
19781,0,0,1
19787,4095,0,0
19793,4095,0,0
19799,0,0,1
19805,4095,0,0
19811,4095,0,0
19817,0,0,1
19832,4095,0,0
19839,0,0,1
19845,4095,0,0
19851,4095,0,0
19857,0,0,1
19862,0,0,1
19875,0,0,1
19882,0,0,1
19888,4095,0,0
19895,0,0,1
19900,0,0,1
19907,4095,0,0
19913,4095,0,0
19920,0,0,1
19938,0,0,1
19945,4095,0,0
19951,4095,0,0
19957,0,0,1
19962,0,0,1
19969,4095,0,0
19980,0,0,1
19987,4095,0,0
19993,4095,0,0
19999,0,0,1
20005,4095,0,0
20011,4095,0,0
20017,0,0,1
20023,0,0,1
20038,0,0,1
20045,4095,0,0
20051,4095,0,0
20057,0,0,1
20062,0,0,1
20069,4095,0,0
20075,4095,0,0
20088,4095,0,0
20094,4095,0,0
20100,0,0,1
20106,4095,0,0
20112,4095,0,0
20118,0,0,1
20133,4095,0,0
20140,0,0,1
20146,4095,0,0
20152,4095,0,0
20158,0,0,1
20164,4095,0,0
20170,4095,0,0
20182,0,0,1
20189,4095,0,0
20196,0,0,1
20201,0,0,1
20208,4095,0,0
20214,4095,0,0
20220,0,0,1
20226,4095,0,0
20240,0,0,1
20247,4095,0,0
20254,4095,0,0
20259,0,0,1
20266,4095,0,0
20272,4095,0,0
20280,0,0,1
20287,4095,0,0
20294,4095,0,0
20299,0,0,1
20306,4095,0,0
20312,4095,0,0
20318,0,0,1
20324,0,0,1
20339,0,0,1
20346,4095,0,0
20353,4095,0,0
20359,0,0,1
20365,0,0,1
20371,4095,0,0
20377,0,0,1
20393,4095,0,0
20400,0,0,1
20406,4095,0,0
20412,4095,0,0
20419,0,0,1
20425,0,0,1
20431,4095,0,0
20438,0,0,1
20453,4095,0,0
20460,0,0,1
20466,4095,0,0
20472,4095,0,0
20478,0,0,1
20484,0,0,1
20490,4095,0,0
20500,0,0,1
20507,4095,0,0
20514,4095,0,0
20519,0,0,1
20526,4095,0,0
20532,4095,0,0
20540,0,0,1
20556,0,0,1
20562,0,0,1
20569,4095,0,0
20575,4095,0,0
20580,0,0,1
20587,4095,0,0
20593,4095,0,0
20599,0,0,1
20612,4095,0,0
20619,0,0,1
20625,0,0,1
20631,4095,0,0
20637,4095,0,0
20643,0,0,1
20650,4095,0,0
20661,0,0,1
20682,0,0,1
20689,4095,0,0
20696,4095,0,0
20701,0,0,1
20708,4095,0,0
20714,4095,0,0
20720,0,0,1
20730,4095,0,0
20737,0,0,1
20744,0,0,1
20751,4095,0,0
20757,0,0,1
20762,0,0,1
20769,4095,0,0
20782,0,0,1
20789,4095,0,0
20796,0,0,1
20801,0,0,1
20808,4095,0,0
20814,4095,0,0
20820,0,0,1
20830,4095,0,0
20837,0,0,1
20844,0,0,1
20850,4095,0,0
20857,0,0,1
20862,0,0,1
20869,4095,0,0
20875,4095,0,0
20890,4095,0,0
20897,0,0,1
20902,0,0,1
20909,4095,0,0
20915,4095,0,0
20920,0,0,1
20927,4095,0,0
20938,0,0,1
20993,4095,0,0
21000,0,0,1
21006,4095,0,0
21013,4095,0,0
21019,0,0,1
21025,0,0,1
21031,4095,0,0
21037,0,0,1
21052,4095,0,0
21059,0,0,1
21065,0,0,1
21071,4095,0,0
21077,0,0,1
21082,0,0,1
21094,4095,0,0
21101,0,0,1
21107,4095,0,0
21113,4095,0,0
21119,0,0,1
21125,0,0,1
21131,4095,0,0
21137,0,0,1
21149,4095,0,0
21160,0,0,1
21167,4095,0,0
21173,4095,0,0
21179,0,0,1
21185,0,0,1
21191,4095,0,0
21201,0,0,1
21211,4095,0,0
21217,0,0,1
21222,0,0,1
21229,4095,0,0
21235,4095,0,0
21240,0,0,1
21247,4095,0,0
21262,0,0,1
21269,4095,0,0
21276,0,0,1
21281,0,0,1
21288,4095,0,0
21294,4095,0,0
21300,0,0,1
21306,4095,0,0
21319,0,0,1
21325,0,0,1
21331,4095,0,0
21337,0,0,1
21342,0,0,1
21349,4095,0,0
21364,0,0,1
21372,4095,0,0
21379,0,0,1
21385,0,0,1
21391,4095,0,0
21397,0,0,1
21402,0,0,1
21409,4095,0,0
21421,0,0,1
21428,4095,0,0
21434,4095,0,0
21440,0,0,1
21446,4095,0,0
21452,4095,0,0
21459,0,0,1
21474,4095,0,0
21481,0,0,1
21487,4095,0,0
21493,4095,0,0
21499,0,0,1
21505,0,0,1
21511,4095,0,0
21517,0,0,1
21528,4095,0,0
21535,0,0,1
21541,0,0,1
21547,4095,0,0
21553,4095,0,0
21559,0,0,1
21568,4095,0,0
21581,0,0,1
21588,4095,0,0
21594,4095,0,0
21600,0,0,1
21606,4095,0,0
21612,4095,0,0
21618,0,0,1
21629,4095,0,0
21636,4095,0,0
21641,0,0,1
21648,4095,0,0
21654,4095,0,0
21660,0,0,1
21668,4095,0,0
21682,0,0,1
21690,4095,0,0
21697,0,0,1
21702,0,0,1
21709,4095,0,0
21715,4095,0,0
21720,0,0,1
21727,4095,0,0
21741,0,0,1
21747,4095,0,0
21753,4095,0,0
21759,0,0,1
21769,4095,0,0
21776,0,0,1
21781,0,0,1
21797,0,0,1
21804,0,0,1
21810,4095,0,0
21816,0,0,1
21821,0,0,1
21828,4095,0,0
21834,4095,0,0
21840,0,0,1
21850,4095,0,0
21857,0,0,1
21863,0,0,1
21872,4095,0,0
21879,0,0,1
21885,0,0,1
21891,4095,0,0
21903,0,0,1
21910,4095,0,0
21916,0,0,1
21923,0,0,1
21929,4095,0,0
21935,4095,0,0
21945,0,0,1
21952,4095,0,0
21959,0,0,1
21965,0,0,0
21971,4095,0,0
21980,0,0,1
21987,4095,0,0
21993,4095,0,0
22004,0,0,1
22014,4095,0,0
22022,0,0,1
22028,4095,0,0
22034,4095,0,0
22040,0,0,1
22046,4095,0,0
22052,4095,0,0
22058,0,0,1
22071,4095,0,0
22079,0,0,1
22086,4095,0,0
22092,4095,0,0
22098,0,0,1
22103,0,0,1
22110,4095,0,0
22116,0,0,1
22130,4095,0,0
22138,0,0,1
22143,0,0,1
22150,4095,0,0
22156,0,0,1
22161,0,0,1
22168,4095,0,0
22183,0,0,1
22192,4095,0,0
22199,0,0,1
22204,0,0,1
22211,4095,0,0
22217,0,0,1
22222,0,0,1
22229,4095,0,0
22241,0,0,1
22248,4095,0,0
22254,4095,0,0
22260,0,0,1
22266,4095,0,0
22272,4095,0,0
22286,4095,0,0
22293,4095,0,0
22300,0,0,1
22306,4095,0,0
22312,4095,0,0
22318,0,0,1
22323,0,0,1
22335,0,0,1
22342,0,0,1
22348,4095,0,0
22354,4095,0,0
22360,0,0,1
22366,4095,0,0
22372,4095,0,0
22378,0,0,1
22396,0,0,1
22403,0,0,1
22409,4095,0,0
22415,4095,0,0
22421,0,0,1
22427,4095,0,0
22433,4095,0,0
22445,0,0,1
22453,4095,0,0
22460,0,0,1
22466,4095,0,0
22472,4095,0,0
22478,0,0,1
22486,4095,0,0
22493,4095,0,0
22503,0,0,1
22510,4095,0,0
22516,4095,0,0
22521,0,0,1
22528,4095,0,0
22534,4095,0,0
22540,0,0,1
22550,4095,0,0
22557,0,0,1
22562,0,0,1
22569,4095,0,0
22575,0,0,1
22581,0,0,1
22589,4095,0,0
22602,0,0,1
22609,4095,0,0
22615,0,0,1
22621,0,0,1
22627,4095,0,0
22633,4095,0,0
22639,0,0,1
22651,4095,0,0
22658,0,0,1
22663,0,0,1
22670,4095,0,0
22676,4095,0,0
22682,0,0,1
22697,0,0,1
22704,0,0,1
22710,4095,0,0
22717,0,0,1
22722,0,0,1
22729,4095,0,0
22735,4095,0,0
22741,0,0,1
22752,4095,0,0
22759,0,0,1
22764,0,0,1
22771,4095,0,0
22777,0,0,1
22782,0,0,1
22789,4095,0,0
22802,0,0,1
22809,4095,0,0
22815,4095,0,0
22821,0,0,1
22827,4095,0,0
22833,4095,0,0
22839,0,0,1
22851,4095,0,0
22858,0,0,1
22863,0,0,1
22870,4095,0,0
22876,4095,0,0
22881,0,0,1
22888,4095,0,0
22900,0,0,1
22907,4095,0,0
22913,4095,0,0
22919,0,0,1
22925,0,0,1
22931,4095,0,0
22937,4095,0,0
22942,0,0,1
22955,4095,0,0
22962,0,0,1
22968,4095,0,0
22974,4095,0,0
22980,0,0,1
22986,4095,0,0
22992,4095,0,0
23005,0,0,1
23013,4095,0,0
23020,0,0,1
23026,4095,0,0
23032,4095,0,0
23038,0,0,1
23043,0,0,1
23053,4095,0,0
23062,0,0,1
23068,4095,0,0
23074,4095,0,0
23080,0,0,1
23086,4095,0,0
23092,4095,0,0
23099,0,0,1
23112,4095,0,0
23120,0,0,1
23126,4095,0,0
23132,4095,0,0
23138,0,0,1
23143,0,0,1
23150,4095,0,0
23162,0,0,1
23169,4095,0,0
23176,4095,0,0
23181,0,0,1
23188,4095,0,0
23194,4095,0,0
23201,0,0,1
23208,4095,0,0
23221,0,0,0
23229,4095,89,0
23236,3412,89,0
23241,0,0,1
23248,4095,0,0
23254,4095,0,0
23260,0,0,1
23266,4095,0,0
23282,0,0,1
23289,4095,0,0
23295,3435,0,0
23301,0,0,1
23310,4095,0,0
23317,3800,0,0
23322,0,0,1
23331,4095,0,0
23339,0,0,0
23345,0,0,1
23351,4095,0,0
23357,4095,0,0
23362,0,0,1
23369,4095,0,0
23375,4095,0,0
23387,4095,0,0
23395,4095,0,0
23402,0,0,1
23408,4095,0,0
23416,4095,0,0
23423,0,0,1
23429,4095,0,0
23439,0,0,0
23446,4095,0,0
23452,4095,0,0
23458,4095,0,0
23463,0,0,1
23470,4095,0,0
23476,4095,0,0
23481,0,0,1
23495,4095,0,0
23503,0,0,1
23509,4095,0,0
23517,4095,0,0
23522,0,0,1
23529,4095,0,0
23535,4095,0,0
23541,0,0,1
23554,4095,0,0
23561,0,0,1
23567,4095,0,0
23573,4095,0,0
23579,0,0,0
23585,0,0,1
23596,4095,0,0
23603,0,0,1
23612,4095,0,0
23619,189,0,0
23625,0,0,1
23631,4095,0,0
23637,4095,0,0
23642,0,0,1
23655,4095,0,0
23661,0,0,0
23668,4095,0,0
23674,4095,0,0
23680,164,0,0
23686,4095,0,0
23692,4095,0,0
23702,0,0,1
23709,4095,0,0
23717,1188,0,0
23723,0,0,1
23730,4095,0,0
23736,4095,0,0
23741,0,0,1
23753,4095,89,0
23760,0,89,0
23766,4095,0,0
23772,4095,0,0
23778,4095,0,0
23783,0,0,1
23790,4095,0,0
23802,0,0,0
23809,4095,0,0
23818,143,0,0
23825,0,0,1
23831,4095,0,0
23837,4095,0,0
23849,4095,0,0
23856,4095,0,0
23862,0,0,1
23869,4095,0,0
23875,4095,0,0
23881,0,0,0
23887,4095,0,0
23893,4095,0,0
23906,4095,0,0
23913,4095,0,0
23920,0,0,0
23927,4095,0,0
23933,4095,0,0
23939,123,0,0
23945,0,0,1
23951,4095,0,0
23963,0,0,1
23970,4095,0,0
23977,4095,0,0
23982,0,0,1
23989,4095,0,0
23995,4095,0,0
24001,0,0,0
24007,4095,0,0
24018,4095,0,0
24026,4095,0,0
24034,4095,0,0
24041,0,0,0
24048,4095,0,0
24055,4095,0,0
24061,0,0,0
24073,4095,0,0
24081,0,0,0
24087,4095,0,0
24093,4095,0,0
24099,401,0,0
24105,0,0,1
24111,4095,0,0
24117,671,0,0
24129,4095,0,0
24136,4095,0,0
24141,0,0,1
24148,4095,0,0
24154,4095,0,0
24160,0,0,0
24166,4095,0,0
24178,4095,0,0
24186,4095,0,0
24193,4095,0,0
24199,534,0,0
24205,0,0,1
24211,4095,0,0
24217,542,0,0
24224,0,0,1
24242,0,0,1
24248,4095,90,0
24254,4095,90,0
24260,0,90,0
24267,4095,0,0
24273,4095,0,0
24279,4095,0,0
24296,4095,0,0
24303,0,0,1
24309,4095,0,0
24315,4095,0,0
24321,0,0,0
24329,4095,0,0
24336,4095,0,0
24342,0,0,1
24357,4095,0,0
24364,0,0,1
24370,4095,0,0
24376,4095,0,0
24381,0,0,1
24388,4095,0,0
24394,4095,0,0
24405,0,0,1
24412,4095,0,0
24419,866,0,0
24425,0,0,1
24433,4095,0,0
24440,0,0,0
24446,4095,0,0
24452,4095,0,0
24465,0,0,1
24472,4095,0,0
24479,4095,0,0
24484,0,0,1
24491,4095,0,0
24497,4095,0,0
24502,0,0,1
24514,4095,0,0
24521,0,0,0
24527,4095,0,0
24534,4095,0,0
24541,0,0,1
24547,4095,0,0
24553,4095,0,0
24559,1149,0,0
24571,4095,0,0
24579,1172,0,0
24584,0,0,1
24591,4095,0,0
24597,4095,0,0
24602,0,0,1
24609,4095,0,0
24620,0,0,0
24636,4095,0,0
24642,0,0,1
24649,4095,0,0
24655,4095,0,0
24661,0,0,0
24667,4095,0,0
24673,4095,0,0
24683,0,0,1
24690,4095,0,0
24697,4095,0,0
24702,0,0,1
24709,4095,0,0
24715,4095,0,0
24721,0,0,0
24731,4095,0,0
24738,4095,0,0
24744,0,0,1
24751,4095,91,0
24757,4095,91,0
24762,0,0,1
24769,4095,0,0
24780,1318,0,0
24787,4095,0,0
24793,4095,0,0
24799,4095,0,0
24804,0,0,1
24811,4095,0,0
24817,4095,0,0
24830,4095,0,0
24837,4095,0,0
24846,4095,0,0
24852,4095,0,0
24858,1660,0,0
24863,0,0,1
24876,4095,0,0
24883,0,0,1
24889,4095,0,0
24895,4095,0,0
24901,0,0,0
24907,0,0,1
24913,4095,0,0
24919,1743,0,0
24935,4095,0,0
24943,0,0,1
24950,4095,0,0
24957,4095,0,0
24962,0,0,1
24969,4095,0,0
24975,4095,0,0
24984,0,0,1
24991,4095,0,0
24998,4095,0,0
25003,0,0,1
25010,4095,0,0
25017,4095,0,0
25022,0,0,1
25029,4095,0,0
25041,0,0,1
25054,4095,0,0
25061,0,0,0
25067,0,0,1
25073,4095,0,0
25079,1847,0,0
25084,0,0,1
25091,4095,0,0
25105,4095,0,0
25112,4095,0,0
25118,1861,0,0
25123,0,0,1
25130,4095,0,0
25136,4095,0,0
25142,0,0,1
25148,4039,0,0
25162,0,0,1
25169,4095,0,0
25175,4095,0,0
25181,0,0,0
25187,3440,0,0
25193,4095,0,0
25199,1907,0,0
25211,4095,0,0
25218,1878,0,0
25223,0,0,1
25230,4095,0,0
25236,4095,0,0
25242,0,0,1
25250,4095,0,0
25264,0,0,1
25271,4095,95,0
25277,4095,95,0
25282,0,0,1
25289,4095,0,0
25295,4095,0,0
25301,0,0,0
25314,4095,0,0
25321,0,0,1
25327,0,0,1
25333,4095,0,0
25339,2087,0,0
25345,0,0,1
25354,4095,0,0
25366,3149,0,0
25408,4095,0,0
25415,4095,0,0
25421,0,0,0
25427,0,0,1
25433,4095,0,0
25439,2198,0,0
25444,0,0,1
25462,0,0,1
25469,4095,0,0
25475,4095,0,0
25481,0,0,0
25487,0,0,1
25493,4095,0,0
25499,2266,0,0
25512,4095,0,0
25519,0,0,0
25526,0,0,1
25532,4095,0,0
25538,2271,0,0
25543,0,0,1
25550,4095,0,0
25557,4095,0,0
25571,4095,0,0
25578,4095,0,0
25583,0,0,1
25590,4095,0,0
25596,4095,0,0
25602,0,0,1
25608,4095,0,0
25620,2204,0,0
25627,0,0,1
25633,4095,0,0
25639,2443,0,0
25644,0,0,1
25651,4095,0,0
25660,0,0,0
25667,0,0,1
25680,0,0,0
25712,4095,0,0
25719,4095,0,0
25729,4095,0,0
25736,4095,0,0
25742,0,0,1
25749,4095,0,0
25755,4095,0,0
25762,0,0,1
25769,4095,0,0
25775,4095,0,0
25787,0,0,0
25794,4095,117,0
25801,0,0,1
25807,0,0,1
25813,4095,0,0
25819,2655,0,0
25824,0,0,1
25836,4095,0,0
25842,0,0,1
25849,4095,0,0
25855,4095,0,0
25864,0,0,1
25870,4095,0,0
25877,4095,0,0
25890,4095,0,0
25896,4095,0,0
25902,0,0,0
25908,4095,0,0
25914,4095,0,0
25920,0,0,0
25932,4095,0,0
25941,0,0,0
25948,4095,0,0
25954,4095,0,0
25960,2930,0,0
25967,0,0,1
25974,4095,0,0
25980,0,0,0
25991,4095,0,0
25998,4095,0,0
26003,0,0,1
26010,4095,0,0
26016,4095,0,0
26022,0,0,1
26028,4095,0,0
26042,0,0,1
26049,4095,0,0
26055,4095,0,0
26061,0,0,1
26069,4095,0,0
26076,4095,0,0
26084,0,0,1
26091,4095,0,0
26098,2971,0,0
26103,0,0,1
26110,4095,0,0
26116,4095,0,0
26122,0,0,1
26128,4095,0,0
26141,0,0,0
26148,4095,0,0
26155,4095,0,0
26161,0,0,0
26168,4095,0,0
26175,4095,0,0
26182,0,0,1
26193,4095,0,0
26201,0,0,0
26208,4095,0,0
26214,4095,0,0
26220,0,0,0
26225,0,0,1
26232,4095,0,0
26238,3328,0,0
26250,4095,0,0
26257,4095,0,0
26262,0,0,1
26269,4095,0,0
26276,4095,0,0
26282,0,0,1
26289,4095,0,0
26301,0,0,0
26308,4095,117,0
26314,4095,117,0
26320,3280,117,0
26325,0,0,1
26332,4095,0,0
26338,4095,0,0
26343,0,0,1
26359,3310,0,0
26366,0,0,1
26372,4095,0,0
26380,0,0,0
26387,0,0,1
26393,4095,0,0
26399,3513,0,0
26411,4095,0,0
26419,3537,0,0
26425,0,0,1
26431,4095,0,0
26437,4095,0,0
26443,0,0,1
26449,4095,0,0
26455,4095,0,0
26467,0,0,0
26474,4095,0,0
26483,0,0,1
26490,4095,0,0
26496,4095,0,0
26502,0,0,1
26508,4095,0,0
26519,0,0,0
26526,0,0,1
26532,4095,0,0
26538,3701,0,0
26543,0,0,1
26550,4095,0,0
26556,4095,0,0
26562,0,0,1
26577,4095,0,0
26588,4095,0,0
26594,4095,0,0
26600,0,0,0
26605,0,0,1
26612,4095,0,0
26618,4095,0,0
26629,4095,0,0
26638,3870,0,0
26644,0,0,1
26651,4095,0,0
26657,4095,0,0
26662,0,0,1
26669,4095,0,0
26675,4095,0,0
26687,0,0,1
26694,4095,0,0
26701,0,0,1
26707,0,0,1
26713,4095,0,0
26719,3931,0,0
26724,0,0,1
26737,4095,0,0
26743,0,0,1
26750,4095,0,0
26756,4095,0,0
26762,0,0,1
26768,4095,0,0
26774,4095,0,0
26788,4095,0,0
26795,4095,0,0
26801,0,0,1
26807,0,0,1
26813,4095,0,0
26819,4095,0,0
26824,0,0,1
26833,4095,116,0
26845,0,0,1
27006,0,0,1
27012,4095,0,0
27018,4095,0,0
27023,0,0,1
27030,4095,0,0
27036,4095,0,0
27042,0,0,1
27054,4095,0,0
27062,0,0,0
27068,4095,0,0
27074,4095,0,0
27080,0,0,0
27086,0,0,1
27093,4095,0,0
