ecg_ts,ecg,bpm,leadOff
78202,0,0,0
78214,1867,0,0
78221,0,0,0
78227,606,0,0
78233,1828,0,0
78239,0,0,1
78245,0,0,0
78251,3824,0,0
80014,0,0,1
80021,0,0,0
80028,2768,0,0
80037,0,0,0
80044,0,0,0
80050,2539,0,0
80055,0,0,1
80068,4095,0,0
81519,0,0,0
81525,816,0,0
81531,1985,115,0
81536,0,0,1
81543,0,0,0
81549,3523,0,0
81554,0,0,1
81568,4095,0,0
81574,0,0,1
81581,0,0,0
81587,4095,0,0
81592,0,0,1
81599,0,0,0
81605,628,0,0
81618,0,0,0
81624,659,0,0
81630,1712,0,0
81635,0,0,1
81642,0,0,0
81648,3495,0,0
81653,0,0,1
81669,3460,0,0
81677,0,0,1
81683,0,0,0
81690,1491,0,0
81695,0,0,1
81702,0,0,0
81708,3363,0,0
81713,0,0,1
81726,736,0,0
81732,0,0,1
81739,0,0,0
81745,593,0,0
81751,1506,0,0
81756,0,0,1
81763,0,0,0
81774,0,0,1
81785,999,0,0
81791,1696,0,0
81797,0,0,1
81803,0,0,0
81809,3419,0,0
81814,0,0,1
81826,906,0,0
81832,0,0,1
81839,0,0,0
81845,511,0,0
81851,1041,0,0
81857,0,0,1
81863,0,0,0
81869,1306,0,0
81884,1072,0,0
81891,0,0,1
81897,0,0,1
81903,0,0,0
81909,3387,0,0
81914,0,0,1
81921,0,0,0
81933,0,0,1
81940,0,0,0
81946,4095,0,0
81952,1535,0,0
81958,0,0,0
81964,878,0,0
81970,1328,0,0
81981,0,0,0
81988,3402,0,0
81993,0,0,1
82000,0,0,0
82006,4095,0,0
82012,0,0,1
82019,0,0,0
82032,0,0,1
82039,0,0,0
82045,142,0,0
82051,0,0,0
82057,0,0,1
82063,0,0,0
82069,1755,0,0
82083,0,0,0
82090,867,113,0
82095,0,0,1
82102,0,0,0
82108,4095,0,0
82113,0,0,1
82120,0,0,0
82131,0,0,1
82138,0,0,0
82144,1168,0,0
82150,1215,0,0
82155,0,0,1
82162,0,0,0
82168,3090,0,0
82179,0,0,0
82190,1265,0,0
82197,0,0,1
82203,0,0,0
82209,3319,0,0
82214,0,0,1
82221,0,0,0
82227,4095,0,0
82240,0,0,0
82247,4095,0,0
82253,0,0,1
82259,0,0,0
82265,1041,0,0
82271,850,0,0
82277,0,0,0
82293,1237,0,0
82299,0,0,0
82305,1419,0,0
82311,989,0,0
82317,0,0,1
82323,0,0,0
82333,1021,0,0
82340,0,0,0
82346,4095,0,0
82352,0,0,1
82358,0,0,0
82364,1391,0,0
82370,1014,0,0
82375,0,0,1
82390,3062,0,0
82397,0,0,1
82403,0,0,0
82409,3251,0,0
82414,0,0,1
82421,0,0,0
82427,4095,0,0
82444,2101,0,0
82452,1124,0,0
82458,0,0,0
82464,0,0,0
82470,733,0,0
82475,0,0,1
82482,0,0,0
82490,2981,0,0
82501,0,0,0
82508,3163,0,0
82513,0,0,1
82520,0,0,0
82526,4095,0,0
82532,0,0,1
82538,0,0,0
82549,2928,0,0
82555,0,0,1
82562,0,0,0
82568,3006,0,0
82573,0,0,1
82580,0,0,0
82586,4095,0,0
82601,0,0,0
82608,4095,114,0
82613,0,0,1
82620,0,0,0
82626,4095,0,0
82631,0,0,1
82638,0,0,0
82649,880,0,0
82656,0,0,1
82662,0,0,0
82668,4095,0,0
82673,0,0,1
82680,0,0,0
82686,4095,0,0
82698,0,0,0
82706,2079,0,0
82712,0,0,1
82718,0,0,0
82724,1968,0,0
82730,656,0,0
82735,0,0,1
82742,0,0,0
82755,0,0,1
82762,0,0,0
82769,2815,0,0
82774,0,0,1
82781,0,0,0
82787,2431,0,0
82796,0,0,1
82809,623,0,0
82815,0,0,1
82822,0,0,0
82828,4095,0,0
82833,0,0,1
82840,0,0,0
82851,717,0,0
82858,0,0,0
82864,0,0,0
82870,562,0,0
82875,0,0,1
82882,0,0,0
82888,2486,0,0
82895,0,0,1
82910,639,0,0
82917,0,0,1
82923,0,0,0
82929,2666,0,0
82934,0,0,1
82941,0,0,0
82947,4095,0,0
82952,0,0,1
82963,0,0,0
82970,633,0,0
82975,0,0,1
82982,0,0,0
82988,2655,0,0
82994,0,0,1
83001,0,0,0
83015,0,0,1
83022,0,0,0
83029,2762,0,0
83034,0,0,1
83041,0,0,0
83047,4095,0,0
83052,0,0,1
83059,0,0,0
83071,511,0,0
83078,0,0,0
83084,0,0,0
83090,542,0,0
83096,0,0,0
83104,2231,0,0
83111,272,0,0
83124,2798,0,0
83131,433,0,0
83137,0,0,1
83143,0,0,0
83149,2608,0,0
83154,0,0,1
83161,0,0,0
83173,0,0,1
83180,0,0,0
83186,4095,0,0
83191,0,0,1
83198,0,0,0
83207,2704,0,0
83219,0,0,0
83226,4095,0,0
83231,381,0,0
83238,0,0,0
83244,0,0,0
83250,167,0,0
83257,0,0,0
83269,4095,0,0
83276,0,0,0
83282,0,0,0
83288,2619,0,0
83293,0,0,1
83300,0,0,0
83307,4095,0,0
83313,0,0,1
83327,4095,0,0
83333,0,0,1
83340,0,0,0
83346,4095,0,0
83351,0,0,1
83358,0,0,0
83368,4095,0,0
83375,0,0,1
83381,0,0,0
83387,4095,0,0
83392,0,0,1
83399,0,0,0
83405,2736,0,0
83412,214,0,0
83426,4095,0,0
83432,0,0,1
83439,0,0,0
83445,2784,0,0
83451,0,0,0
83457,0,0,0
83463,0,0,0
83475,0,0,0
83482,0,0,0
83488,4095,0,0
83493,0,0,1
83500,0,0,0
83507,2500,0,0
83519,0,0,0
83526,4095,0,0
83531,0,0,1
83538,0,0,0
83544,0,0,0
83550,0,0,0
83556,0,0,0
83562,0,0,0
83574,0,0,1
83581,0,0,0
83588,2551,0,0
83593,0,0,1
83600,0,0,0
83606,4095,0,0
83612,165,0,0
83627,2535,0,0
83633,0,0,1
83640,0,0,0
83646,4095,0,0
83651,16,0,0
83658,0,0,0
83664,3568,0,0
83676,0,0,0
83683,0,0,0
83689,2559,113,0
83694,0,0,1
83701,0,0,0
83707,4095,0,0
83714,0,0,1
83730,0,0,0
83736,0,0,0
83742,0,0,0
83748,4095,0,0
83754,0,0,1
83760,0,0,0
83772,0,0,1
83779,0,0,0
83786,4095,0,0
83791,0,0,1
83798,0,0,0
83804,0,0,0
83810,0,0,0
83817,0,0,0
83832,0,0,1
83854,0,0,1
83861,0,0,0
83868,4095,0,0
83873,0,0,1
83880,0,0,0
83891,0,0,1
83898,0,0,0
83905,53,0,0
83911,0,0,0
83917,0,0,1
83924,657,0,0
83931,0,0,0
83937,0,0,0
83952,0,0,0
83959,0,0,0
83966,4085,0,0
83971,0,0,1
83978,0,0,0
83984,71,0,0
83995,0,0,1
84002,122,0,0
84009,0,0,1
84016,0,0,0
84024,4095,0,0
84030,0,0,1
84037,0,0,0
84043,174,0,0
84055,0,0,1
84063,211,0,0
84070,0,0,1
84076,0,0,0
84082,288,0,0
84088,4095,0,0
84093,0,0,1
84107,4095,0,0
84113,0,0,1
84120,0,0,0
84128,2065,0,0
84134,0,0,1
84141,0,0,0
84151,0,0,1
84158,0,0,0
84165,2738,0,0
84171,0,0,1
84177,0,0,0
84183,2830,0,0
84189,0,0,1
84194,0,0,1
84209,2443,0,0
84216,0,0,0
84222,2913,0,0
84231,2657,0,0
84238,0,0,0
84244,2765,0,0
84250,0,0,1
84259,0,0,0
84266,4095,0,0
84271,0,0,1
84278,0,0,0
84284,4095,0,0
84290,0,0,1
84296,0,0,0
84306,4095,0,0
84313,0,0,1
84319,0,0,0
84325,4095,0,0
84332,0,0,1
84339,1280,0,0
84345,4095,0,0
84350,459,0,0
84363,2926,0,0
84370,0,0,1
84376,0,0,0
84382,1150,0,0
84388,4095,0,0
84393,0,0,1
84400,1211,0,0
84406,4095,0,0
84418,0,0,0
84426,4095,0,0
84431,0,0,1
84440,1142,0,0
84447,4095,0,0
84452,0,0,1
84464,4095,0,0
84471,0,0,1
84477,0,0,0
84483,2270,0,0
84489,2592,0,0
84494,0,0,1
84501,771,0,0
84507,4095,0,0
84520,646,0,0
84529,4095,0,0
84538,0,0,0
84545,4095,0,0
84550,0,0,1
84557,0,0,0
84563,2064,0,0
84569,2738,0,0
84581,1981,0,0
84589,2549,0,0
84594,0,0,1
84601,0,0,0
84607,4095,0,0
84612,0,0,1
84619,0,0,0
84625,4095,0,0
84640,0,0,0
84647,4095,0,0
84652,0,0,1
84659,0,0,0
84665,4095,0,0
84670,0,0,1
84677,0,0,0
84690,1687,0,0
84697,0,0,0
84703,1584,0,0
84709,0,0,1
84714,0,0,1
84721,0,0,0
84727,4095,0,0
84733,0,0,1
84745,4095,0,0
84752,0,0,1
84758,0,0,0
84764,4095,0,0
84770,0,0,1
84776,0,0,0
84788,2078,0,0
84795,0,0,1
84801,0,0,0
84807,4095,0,0
84812,0,0,1
84819,0,0,0
84825,4095,0,0
84830,0,0,1
84849,0,0,1
84856,0,0,0
84862,2622,0,0
84868,2297,0,0
84873,0,0,1
84880,384,0,0
84886,4095,0,0
84891,0,0,1
84903,4095,0,0
84910,0,0,1
84916,0,0,0
84922,0,0,0
84928,2013,0,0
84933,0,0,1
84940,0,0,0
84948,2274,0,0
84961,0,0,0
84968,2041,0,0
84973,0,0,1
84980,0,0,0
84986,4095,0,0
84991,0,0,1
84998,0,0,0
85011,0,0,1
85017,0,0,0
85023,1997,0,0
85029,1971,0,0
85035,0,0,1
85041,0,0,0
85049,1716,0,0
85062,0,0,0
85070,0,0,1
85076,0,0,0
85082,1584,0,0
85088,1350,0,0
85093,0,0,1
85100,0,0,0
85111,0,0,1
85119,0,0,0
85126,4095,0,0
85131,0,0,1
85138,0,0,0
85144,4095,0,0
85151,0,0,1
85165,4095,0,0
85171,0,0,1
85178,0,0,0
85184,2428,0,0
85190,0,0,1
85196,0,0,0
85208,3948,115,0
85215,0,0,1
85221,0,0,0
85227,4095,0,0
85232,0,0,1
85239,0,0,0
85245,4095,0,0
85254,0,0,1
85267,4095,0,0
85274,0,0,1
85280,0,0,0
85286,3572,0,0
85291,0,0,1
85298,0,0,0
85304,4095,0,0
85315,0,0,0
85323,2559,0,0
85330,1806,0,0
85336,0,0,0
85342,2548,0,0
85348,1594,0,0
85357,0,0,0
85364,2531,0,0
85377,0,0,0
85398,0,0,0
85405,4095,0,0
85410,0,0,1
85422,1677,0,0
85431,0,0,1
85437,0,0,0
85443,2320,0,0
85449,0,0,1
85458,0,0,0
85465,4095,0,0
85470,0,0,1
85481,0,0,0
85488,1327,0,0
85493,0,0,1
85500,0,0,0
85506,3457,0,0
85512,0,0,1
85519,0,0,0
85529,1294,0,0
85536,0,0,0
85542,0,0,0
85548,1056,0,0
85554,0,0,1
85562,0,0,0
85569,1120,0,0
85582,2610,0,0
85589,1011,0,0
85595,0,0,1
85601,0,0,0
85607,3173,0,0
85612,0,0,1
85619,0,0,0
85633,0,0,1
85640,0,0,0
85647,3211,0,0
85652,0,0,1
85659,0,0,0
85668,3190,0,0
85675,0,0,1
85687,3203,0,0
85694,0,0,1
85700,0,0,0
85706,3277,0,0
85711,0,0,1
85718,0,0,0
85724,2752,0,0
85729,980,117,0
85741,2037,0,0
85748,954,0,0
85754,0,0,1
85760,0,0,0
85767,706,0,0
85775,0,0,1
85781,0,0,0
85792,0,0,1
85801,3138,0,0
85808,912,0,0
85813,0,0,1
85820,0,0,0
85826,3215,0,0
85831,0,0,1
85838,0,0,0
85850,769,0,0
85857,0,0,0
85864,4095,0,0
85871,0,0,1
85878,0,0,0
85884,4095,0,0
85889,0,0,1
85902,3637,0,0
85910,907,0,0
85916,0,0,0
85922,0,0,0
85928,845,0,0
85933,0,0,0
85940,0,0,0
85946,3114,0,0
85959,0,0,0
85966,3148,0,0
85973,0,0,1
85980,0,0,0
85987,3195,0,0
85992,0,0,1
86006,3216,0,0
86013,0,0,1
86019,0,0,0
86025,4095,0,0
86030,0,0,1
86037,0,0,0
86043,3399,0,0
86049,816,0,0
86062,3363,0,0
86071,0,0,1
86078,0,0,0
86084,4095,0,0
86089,0,0,1
86096,0,0,0
86105,3328,0,0
86113,0,0,1
86119,0,0,0
86125,4095,0,0
86130,0,0,1
86137,0,0,0
86143,3254,0,0
86149,394,0,0
86161,0,0,0
86168,597,0,0
86176,0,0,0
86183,3558,0,0
86189,541,0,0
86195,0,0,0
86207,2985,0,0
86214,0,0,0
86220,0,0,0
86226,2986,0,0
86231,0,0,1
86238,0,0,0
86244,4095,117,0
86255,0,0,0
86263,3948,0,0
86269,443,0,0
86277,0,0,0
86284,4095,0,0
86289,0,0,1
86296,0,0,0
86308,302,0,0
86315,0,0,0
86321,0,0,0
86327,2800,0,0
86332,0,0,1
86339,0,0,0
86345,4095,0,0
86356,0,0,0
86363,3843,0,0
86369,435,0,0
86375,0,0,0
86384,4095,0,0
86390,885,0,0
86397,0,0,0
86410,0,0,1
86417,0,0,0
86423,3872,0,0
86429,310,0,0
86435,0,0,0
86441,0,0,0
86447,2754,0,0
86457,0,0,0
86464,4095,0,0
86469,0,0,1
86476,0,0,0
86483,4095,0,0
86489,159,0,0
86496,0,0,0
86507,369,0,0
86514,0,0,0
86520,0,0,0
86526,2611,0,0
86531,0,0,1
86538,0,0,0
86544,4095,0,0
86557,0,0,0
86564,3682,0,0
86569,58,0,0
86576,0,0,0
86586,4095,0,0
86592,0,0,1
86599,0,0,0
86609,0,0,0
86624,4095,0,0
86631,144,0,0
86637,0,0,0
86643,7,0,0
86649,0,0,0
86655,0,0,0
86661,0,0,0
86673,0,0,0
86680,0,0,0
86687,2582,0,0
86694,0,0,0
86700,0,0,0
86706,2512,0,0
86711,0,0,1
86725,4095,0,0
86731,0,0,1
86738,0,0,0
86744,4095,0,0
86749,0,0,1
86756,0,0,0
86763,4095,116,0
86772,0,0,1
86781,47,0,0
86788,2501,0,0
86795,0,0,0
86801,80,0,0
86807,2480,0,0
86812,0,0,1
86824,4095,0,0
86832,0,0,1
86838,0,0,0
86844,4095,0,0
86849,0,0,1
86856,0,0,0
86862,4095,0,0
86872,0,0,1
86881,4095,0,0
86889,0,0,1
86897,0,0,0
86904,4095,0,0
86909,0,0,0
86916,0,0,0
86928,2421,0,0
86936,0,0,0
86943,4095,0,0
86948,0,0,1
86955,0,0,0
86961,176,0,0
86967,2281,0,0
86980,311,0,0
86986,2256,0,0
86994,0,0,0
87001,4095,0,0
87008,0,0,1
87015,0,0,0
87024,3871,0,0
87031,0,0,1
87037,0,0,0
87043,4095,0,0
87048,0,0,1
87055,0,0,0
87061,271,0,0
87067,2224,0,0
87080,0,0,0
87087,2201,0,0
87096,0,0,0
87103,4095,0,0
87108,0,0,1
87115,0,0,0
87125,3924,0,0
87132,0,0,1
87138,0,0,0
87144,3922,0,0
87149,0,0,1
87156,0,0,0
87162,4095,0,0
87173,0,0,1
87180,432,0,0
87187,0,0,1
87193,0,0,1
87199,0,0,0
87206,1920,0,0
87211,0,0,1
87225,4095,0,0
87232,0,0,1
87238,0,0,0
87244,3856,0,0
87249,0,0,1
87256,0,0,0
87263,400,0,0
87273,0,0,1
87281,505,0,0
87287,2002,0,0
87293,0,0,1
87302,560,0,0
87309,0,0,1
87315,0,0,0
87326,3744,0,0
87333,0,0,1
87339,0,0,0
87345,3814,0,0
87350,0,0,1
87357,0,0,0
87363,4095,0,0
87368,0,0,1
87381,4095,0,0
87388,1869,0,0
87394,0,0,0
87401,4095,0,0
87410,0,0,1
87416,0,0,0
87426,3520,0,0
87433,0,0,1
87439,0,0,0
87445,3712,0,0
87450,0,0,1
87457,0,0,0
87463,4095,0,0
87468,0,0,1
87479,0,0,0
87486,3775,0,0
87491,0,0,1
87498,0,0,0
87506,3429,0,0
87513,0,0,1
87519,0,0,0
87532,0,0,1
87539,0,0,0
87545,3614,0,0
87550,0,0,1
87557,0,0,0
87563,4095,0,0
87568,0,0,1
87575,0,0,0
87586,3610,0,0
87593,0,0,1
87599,739,0,0
87608,1634,0,0
87614,0,0,0
87620,376,0,0
87626,1279,0,0
87639,0,0,0
87646,1467,0,0
87651,0,0,1
87658,0,0,0
87664,3328,0,0
87669,0,0,1
87676,0,0,0
87682,4095,0,0
87693,0,0,1
87700,933,0,0
87707,0,0,1
87713,0,0,0
87720,470,0,0
87726,1110,0,0
87731,0,0,1
87742,4095,0,0
87751,0,0,1
87757,0,0,0
87763,4095,0,0
87768,0,0,1
87775,0,0,0
87781,877,0,0
87787,1408,116,0
87800,0,0,0
87808,1392,0,0
87815,0,0,0
87822,4095,0,0
87828,1125,0,0
87834,0,0,0
87840,752,0,0
87846,1226,0,0
87857,0,0,0
87864,3366,0,0
87869,0,0,1
87876,0,0,0
87882,973,0,0
87888,0,0,1
87894,0,0,0
87906,3123,0,0
87913,0,0,1
87922,957,0,0
87928,0,0,1
87935,0,0,0
87941,830,0,0
87947,1023,0,0
87960,1317,0,0
87967,1276,0,0
87973,0,0,1
87979,0,0,0
87985,4095,0,0
87990,0,0,1
87997,0,0,0
88006,3024,0,0
88020,0,0,0
88067,0,0,1
88076,0,0,0
88083,4095,0,0
88089,0,0,1
88096,0,0,0
88102,4095,0,0
88108,942,0,0
88114,0,0,1
88121,4095,0,0
88133,0,0,1
88140,1226,0,0
88147,0,0,1
88153,0,0,1
88159,0,0,0
88165,2672,0,0
88170,0,0,1
88177,0,0,0
88189,0,0,1
88196,0,0,0
88202,4095,0,0
88207,0,0,1
88214,0,0,0
88230,0,0,1
88237,0,0,0
88244,2743,0,0
88249,0,0,1
88256,0,0,0
88262,971,0,0
88267,0,0,1
88279,0,0,0
88288,0,0,1
88295,0,0,0
88301,1592,0,0
88307,903,116,0
88313,0,0,1
88319,0,0,0
88327,476,0,0
88340,0,0,0
88347,0,0,1
88353,0,0,1
88359,0,0,0
88365,2589,0,0
88370,0,0,1
88377,0,0,0
88383,4095,0,0
88394,0,0,1
88402,1527,0,0
88408,0,0,1
88414,0,0,0
88420,1279,0,0
88428,540,0,0
88435,0,0,0
88441,1664,0,0
88454,0,0,0
88461,1807,0,0
88467,0,0,1
88473,0,0,1
88479,0,0,0
88485,4095,0,0
88490,0,0,1
88505,4095,0,0
88513,0,0,1
88519,0,0,0
88525,2496,0,0
88532,0,0,1
88539,0,0,0
88545,2485,0,0
88550,0,0,1
88564,4095,0,0
88570,0,0,1
88577,0,0,0
88583,4095,0,0
88588,0,0,1
88595,0,0,0
88601,229,0,0
88612,0,0,1
88619,0,0,0
88625,548,0,0
88632,0,0,1
88639,0,0,0
88646,0,0,0
88651,0,0,1
88658,0,0,0
88669,0,0,1
88676,0,0,0
88682,4095,0,0
88687,0,0,1
88694,0,0,0
88700,0,0,0
88706,265,0,0
88718,0,0,0
88725,2559,0,0
88732,0,0,1
88741,3356,0,0
88748,0,0,0
88754,0,0,0
88760,1936,0,0
88766,2540,0,0
88780,0,0,0
88788,0,0,1
88794,0,0,0
88800,2031,0,0
88806,2505,0,0
88811,0,0,0
88824,4095,116,0
88832,0,0,1
88839,0,0,0
88846,313,0,0
88852,0,0,0
88858,0,0,0
88864,2559,0,0
88869,0,0,1
88882,4095,0,0
88890,0,0,1
88896,0,0,0
88902,3934,0,0
88907,0,0,1
88914,0,0,0
88920,2215,0,0
88931,0,0,1
88940,0,0,0
88947,256,0,0
88953,0,0,0
88959,0,0,0
88965,2291,0,0
88970,0,0,1
88977,0,0,0
88989,0,0,1
88996,0,0,0
89003,2442,0,0
89009,0,0,1
89015,0,0,0
89021,2349,0,0
89027,160,0,0
89038,0,0,0
89050,0,0,1
89057,0,0,0
89063,4095,0,0
89068,0,0,1
89075,0,0,0
89081,2559,0,0
89087,89,0,0
89099,0,0,0
89106,129,0,0
89112,0,0,0
89118,0,0,0
89124,2128,0,0
89129,0,0,1
89136,0,0,0
89149,0,0,1
89156,0,0,0
89163,4095,0,0
89168,0,0,1
89175,0,0,0
89181,2640,0,0
89187,0,0,0
89193,0,0,0
89205,2263,0,0
89212,0,0,0
89218,0,0,0
89224,4095,0,0
89229,0,0,1
89236,0,0,0
89242,3888,0,0
89255,0,0,0
89262,4095,0,0
89267,0,0,0
89274,0,0,0
89280,2468,0,0
89286,0,0,0
89292,0,0,0
89305,2036,0,0
89312,0,0,0
89318,0,0,0
89324,4095,0,0
89329,0,0,1
89336,0,0,0
89350,0,0,1
89359,2192,0,0
89366,0,115,0
89372,0,0,0
89378,0,0,0
89384,1987,0,0
89389,0,0,1
89396,0,0,0
89409,0,0,1
89417,0,0,0
89424,2227,0,0
89429,0,0,1
89436,0,0,0
89442,3551,0,0
89449,0,0,1
89458,0,0,0
89469,0,0,1
89476,0,0,0
89482,4054,0,0
89487,0,0,1
89494,0,0,0
89500,2675,0,0
89507,0,0,1
89518,0,0,0
89525,3846,0,0
89530,0,0,1
89537,0,0,0
89543,2989,0,0
89549,0,0,1
89555,0,0,0
89567,1652,0,0
89574,0,0,0
89581,0,0,0
89587,0,0,0
89593,0,0,0
89599,0,0,0
89605,0,0,0
89610,0,0,1
89624,1187,0,0
89631,0,0,1
89637,0,0,0
89643,1225,0,0
89649,0,0,1
89657,0,0,0
89664,1616,0,0
89669,0,0,1
89683,3836,0,0
89688,0,0,1
89695,0,0,0
89701,2805,0,0
89707,0,0,0
89713,0,0,0
89719,0,0,0
89734,0,0,0
89741,3165,0,0
89746,0,0,0
89753,0,0,0
89759,0,0,0
89766,0,0,0
89772,0,0,0
89778,0,0,0
89791,0,0,0
89798,0,0,0
89804,1998,0,0
89809,0,0,1
89816,0,0,0
89822,3607,0,0
89827,0,0,1
89840,394,0,0
89847,0,0,1
89853,0,0,0
89862,2314,0,0
89868,0,0,1
89875,0,0,0
89881,3634,114,0
89892,0,0,0
89900,0,0,0
89907,0,0,1
89913,0,0,0
89919,0,0,0
89925,1731,0,0
89930,0,0,1
89937,0,0,0
89949,0,0,1
89956,0,0,0
89965,3215,0,0
89972,0,0,0
89978,0,0,0
89984,1525,0,0
89996,0,0,0
90003,3485,0,0
90010,0,0,1
90016,0,0,0
90022,3239,0,0
90027,0,0,1
90034,0,0,0
90040,3632,0,0
90053,0,0,0
90060,3549,0,0
90067,0,0,1
90074,0,0,0
90080,0,0,0
90086,0,0,1
90092,0,0,0
90098,0,0,0
90110,0,0,1
90117,0,0,0
90123,1071,0,0
90128,0,0,1
90135,0,0,0
90141,1914,0,0
90146,0,0,1
90162,1472,0,0
90169,0,0,1
90176,0,0,0
90182,1380,0,0
90187,0,0,1
90194,0,0,0
90200,0,0,0
90210,0,0,1
90217,0,0,0
90224,305,0,0
90229,0,0,1
90236,0,0,0
90242,3021,0,0
90247,0,0,1
90254,0,0,0
90266,1481,0,0
90273,0,0,0
90280,3614,0,0
90286,0,0,1
90292,0,0,0
90298,0,0,0
90304,1173,0,0
90317,0,0,0
90324,1423,0,0
90329,0,0,1
90336,0,0,0
90342,2059,0,0
90347,0,0,1
90360,3504,0,0
90367,0,0,1
90373,0,0,0
90381,3293,0,0
90386,0,0,1
90393,0,0,0
90399,206,0,0
90405,0,0,1
90416,0,0,0
90423,2647,0,0
90428,0,0,1
90435,0,0,0
90441,3395,0,0
90446,0,0,1
90453,0,0,0
90466,0,0,1
90473,0,0,0
90482,3351,0,0
90488,0,0,1
90495,0,0,0
90501,4095,0,0
90506,0,0,1
90520,4095,0,0
90526,0,0,1
90533,0,0,0
90539,349,0,0
90545,1152,0,0
90551,0,0,1
90561,4095,0,0
90569,0,0,1
90579,1159,0,0
90586,0,0,1
90591,0,0,0
90598,0,0,0
90604,3047,0,0
90613,0,0,0
90620,4095,0,0
90626,1385,0,0
90632,0,0,0
90638,0,0,0
90644,3014,0,0
90649,0,0,1
90662,3099,0,0
90669,0,0,1
90675,0,0,0
90682,4095,0,0
90688,0,0,1
90695,0,0,0
90701,4095,0,0
90711,0,0,1
90719,814,0,0
90726,0,0,1
90732,0,0,0
90738,432,0,0
90744,801,0,0
90749,0,0,1
90756,0,0,0
90769,0,0,1
90776,0,0,0
90784,3201,0,0
90791,0,0,1
90797,0,0,0
90803,3102,0,0
90812,0,0,1
90819,4095,0,0
90826,0,0,1
90832,0,0,0
90838,836,0,0
90844,1214,0,0
90849,0,0,1
90862,2848,0,0
90870,0,0,1
90876,0,0,0
90885,981,0,0
90893,0,0,0
90899,569,0,0
90905,496,0,0
90913,0,0,0
90920,3376,114,0
90926,415,114,0
90932,0,0,0
90938,0,0,0
90944,0,0,0
90949,0,0,1
90956,0,0,0
90968,0,0,1
90975,0,0,0
90981,2549,0,0
90987,0,0,1
90994,0,0,0
91000,321,0,0
91013,0,0,0
91021,3001,0,0
91027,0,0,1
91034,0,0,0
91040,336,0,0
91046,0,0,1
91052,0,0,0
91064,0,0,0
91071,0,0,1
91077,0,0,0
91083,0,0,0
91090,0,0,1
91097,0,0,0
91104,1867,0,0
91114,0,0,0
91121,3220,0,0
91127,0,0,1
91134,0,0,0
91140,2999,0,0
91145,0,0,1
91152,0,0,0
91164,576,0,0
91171,0,0,1
91177,0,0,0
91183,610,0,0
91192,0,0,0
91199,975,0,0
91205,0,0,1
91214,0,0,0
91222,2790,0,0
91228,0,0,1
91235,0,0,0
91241,4095,0,0
91246,0,0,1
91253,0,0,0
91259,1296,0,0
91272,0,0,0
91279,1454,0,0
91285,0,0,1
91292,0,0,0
91301,2485,0,0
91315,0,0,0
91322,2902,0,0
91328,0,0,1
91335,0,0,0
91341,4095,0,0
91346,0,0,1
91353,0,0,0
91365,441,0,0
91372,0,0,0
91378,1575,0,0
91384,624,0,0
91390,0,0,1
91397,0,0,0
91404,502,0,0
91414,0,0,0
91421,4095,0,0
91427,0,0,1
91434,0,0,0
91440,3997,114,0
91446,213,114,0
91452,0,0,0
91465,0,0,1
91473,0,0,0
91480,4095,0,0
91485,0,0,1
91492,0,0,0
91500,1712,0,0
91507,0,0,1
91513,0,0,0
91527,0,0,1
91534,0,0,0
91540,4095,0,0
91546,614,0,0
91552,0,0,0
91558,1175,0,0
91564,0,0,0
91574,0,0,0
91613,0,0,0
91620,4095,0,0
91625,0,0,1
91632,0,0,0
91638,2023,0,0
91644,575,0,0
91660,4095,0,0
91668,0,0,1
91675,0,0,0
91681,3680,0,0
91686,0,0,1
91693,0,0,0
91699,1814,0,0
91705,0,0,0
91719,2227,0,0
91725,0,0,1
91732,0,0,0
91738,1853,0,0
91744,166,0,0
91749,0,0,1
91756,0,0,0
91768,0,0,1
91775,0,0,0
91781,4095,0,0
91786,0,0,1
91793,0,0,0
91799,2075,0,0
91807,0,0,1
91821,2322,0,0
91827,0,0,1
91834,0,0,0
91840,2015,0,0
91845,0,0,1
91852,0,0,0
91865,128,0,0
91872,0,0,0
91878,1773,0,0
91884,0,0,0
91889,0,0,1
91896,0,0,0
91902,0,0,0
91909,0,0,1
91922,352,0,0
91933,0,0,0
91940,25,0,0
91945,0,0,0
91952,0,0,0
91958,142,0,0
91964,0,0,0
91979,3061,114,0
91987,0,114,0
91993,0,0,0
91999,1746,0,0
92005,0,0,0
92013,0,0,0
92020,2190,0,0
92031,0,0,0
92039,2445,0,0
92045,117,0,0
92051,0,0,1
92057,0,0,0
92063,2102,0,0
92068,0,0,1
92075,0,0,0
92089,0,0,1
92097,0,0,0
92104,0,0,0
92111,0,0,0
92120,3737,0,0
92126,0,0,1
92133,0,0,0
92142,4095,0,0
92149,0,0,1
92155,0,0,0
92161,4095,0,0
92166,0,0,1
92173,0,0,0
92179,1718,0,0
92185,0,0,0
92199,2274,0,0
92207,0,0,1
92213,0,0,0
92219,2958,0,0
92225,0,0,1
92232,0,0,0
92238,2322,0,0
92244,0,0,0
92254,0,0,0
92261,4095,0,0
92266,0,0,1
92273,0,0,0
92279,2374,0,0
92285,0,0,0
92291,0,0,0
92304,1885,0,0
92312,0,0,0
92319,2190,0,0
92327,0,0,0
92333,0,0,0
92339,2384,0,0
92345,0,0,0
92351,0,0,0
92364,0,0,0
92371,0,0,0
92377,0,0,0
92383,2064,0,0
92388,0,0,1
92395,0,0,0
92401,3799,0,0
92410,0,0,1
92435,0,0,0
92442,2213,0,0
92447,0,0,1
92454,0,0,0
92460,3645,0,0
92465,0,0,0
92478,2116,0,0
92485,0,0,0
92491,0,0,0
92497,0,0,0
92503,1807,0,0
92508,0,0,1
92515,0,0,0
92528,0,0,1
92535,0,0,0
92542,2141,112,0
92547,0,0,1
92554,0,0,0
92560,3344,0,0
92565,0,0,1
92572,0,0,0
92585,0,0,1
92592,0,0,0
92598,2220,0,0
92604,0,0,0
92609,0,0,0
92616,0,0,0
92625,0,0,0
92632,0,0,0
92644,0,0,0
92651,0,0,0
92657,0,0,0
92663,1727,0,0
92668,0,0,1
92675,0,0,0
92684,1518,0,0
92697,0,0,0
92704,0,0,0
92710,0,0,0
92716,0,0,0
92722,3536,0,0
92728,0,0,1
92735,0,0,0
92744,0,0,0
92752,0,0,0
92758,3649,0,0
92764,2126,0,0
92770,0,0,0
92776,0,0,0
92782,1418,0,0
92791,0,0,0
92799,192,0,0
92805,0,0,1
92812,0,0,0
92818,1215,0,0
92824,0,0,1
92832,0,0,0
92839,3059,0,0
92852,0,0,0
92900,2960,0,0
92908,0,0,1
92914,0,0,0
92920,3504,0,0
92926,0,0,1
92934,0,0,0
92941,3504,0,0
92946,0,0,1
92960,3892,0,0
92967,0,0,1
92973,0,0,0
92979,2974,0,0
92985,0,0,1
92991,0,0,0
92997,0,0,0
93007,0,0,1
93014,0,0,0
93021,1817,0,0
93028,0,0,1
93036,0,0,0
93043,1303,0,0
93055,0,0,0
93063,0,0,1
93068,0,0,1
93075,0,0,0
93081,2819,0,0
93086,0,0,1
93093,0,0,0
93099,3241,0,0
93110,0,0,1
93117,144,0,0
93123,1715,0,0
93129,0,0,0
93139,3487,0,0
93146,0,0,1
93152,0,0,0
93164,0,0,0
93171,0,0,0
93177,48,0,0
93183,1488,0,0
93189,0,0,1
93195,0,0,0
93201,3169,0,0
93206,0,0,1
93219,3506,0,0
93226,0,0,1
93232,0,0,0
93240,3046,0,0
93248,0,0,1
93254,0,0,0
93260,3162,0,0
93265,0,0,1
93279,4095,0,0
93284,0,0,1
93291,0,0,0
93297,0,0,0
93303,1047,0,0
93309,0,0,1
93315,0,0,0
93328,0,0,1
93336,354,0,0
93343,1526,0,0
93350,0,0,0
93356,0,0,0
93362,1456,0,0
93367,0,0,1
93374,0,0,0
93386,0,0,1
93393,0,0,0
93399,167,0,0
93404,0,0,1
93411,0,0,0
93417,80,0,0
93427,0,0,1
93434,0,0,0
93441,3391,0,0
93448,0,0,1
93455,201,0,0
93461,3091,0,0
93466,0,0,1
93473,0,0,0
93485,0,0,1
93493,0,0,0
93500,4095,0,0
93505,0,0,1
93512,0,0,0
93518,4016,0,0
93524,0,0,1
93530,0,0,0
93543,3411,0,0
93550,0,0,1
93557,324,0,0
93563,0,0,1
93569,0,0,1
93575,0,0,0
93584,0,0,1
93591,0,0,0
93598,4095,0,0
93604,0,0,1
93610,0,0,0
93616,0,0,0
93622,1260,0,0
93627,0,0,1
93638,4095,0,0
93652,0,0,0
93659,597,0,0
93664,0,0,1
93671,0,0,0
93677,554,0,0
93683,0,0,1
93689,0,0,1
93700,4095,0,0
93713,0,0,0
93720,4095,0,0
93725,0,0,1
93732,0,0,0
93738,690,0,0
93744,0,0,1
93752,0,0,0
93765,0,0,1
93772,0,0,0
93779,4095,0,0
93784,0,0,1
93791,0,0,0
93797,743,0,0
93803,1099,0,0
93815,0,0,0
93822,1166,0,0
93827,0,0,1
93834,0,0,0
93840,4095,0,0
93846,0,0,1
93854,0,0,0
93868,0,0,1
93875,0,0,0
93881,3392,0,0
93886,0,0,1
93893,0,0,0
93899,4095,0,0
93904,0,0,1
93916,0,0,0
93923,1016,0,0
93929,0,0,1
93935,0,0,0
93941,2747,0,0
93946,0,0,1
93953,0,0,0
93965,0,0,1
93972,0,0,0
93979,1328,0,0
93984,0,0,1
93991,0,0,0
93997,885,0,0
94003,701,0,0
94009,0,0,1
94022,2931,0,0
94029,0,0,1
94035,0,0,0
94041,2809,0,0
94046,0,0,1
94053,0,0,0
94060,2843,0,0
94074,0,0,0
94081,3130,0,0
94086,0,0,1
94093,0,0,0
94099,3856,112,0
94104,0,0,1
94117,769,0,0
94124,0,0,1
94130,0,0,0
94136,0,0,0
94142,272,0,0
94147,0,0,1
94154,0,0,0
94167,0,0,1
94175,0,0,0
94181,2960,0,0
94186,0,0,1
94193,0,0,0
94199,3047,0,0
94204,0,0,1
94217,1306,0,0
94225,0,0,1
94231,0,0,0
94237,1269,0,0
94243,471,0,0
94249,0,0,1
94256,1311,0,0
94269,0,0,1
94277,4095,0,0
94283,0,0,1
94290,0,0,0
94296,0,0,0
94302,0,0,0
94307,0,0,1
94314,0,0,0
94326,0,0,1
94333,0,0,0
94340,2672,0,0
94345,0,0,1
94352,0,0,0
94358,3536,0,0
94367,0,0,1
94380,4095,0,0
94387,0,0,1
94393,0,0,0
94399,4095,0,0
94404,0,0,1
94411,0,0,0
94417,816,0,0
94423,0,0,0
94435,0,0,0
94442,0,0,0
94447,0,0,1
94454,0,0,0
94460,1038,0,0
94467,0,0,1
94480,1264,0,0
94487,0,0,1
94493,0,0,0
94499,2839,0,0
94504,0,0,1
94511,0,0,0
94517,813,0,0
94523,0,0,0
94536,1167,0,0
94543,0,0,1
94549,0,0,1
94555,0,0,0
94561,938,0,0
94568,0,0,1
94580,3219,0,0
94588,0,0,0
94594,0,0,0
94600,2463,0,0
94605,0,0,1
94612,0,0,0
94618,4095,113,0
94623,0,0,1
94634,0,0,0
94641,2542,0,0
94646,0,0,1
94653,0,0,0
94659,4095,0,0
94665,0,0,1
94674,0,0,0
94687,0,0,1
94694,0,0,0
94700,2315,0,0
94705,0,0,1
94712,0,0,0
94718,4095,0,0
94724,0,0,0
94735,0,0,0
94742,256,0,0
94748,0,0,0
94754,0,0,0
94760,2290,0,0
94765,0,0,1
94774,0,0,0
94784,0,0,1
94791,0,0,0
94797,1904,0,0
94803,0,0,0
94809,0,0,1
94815,0,0,0
94821,2284,0,0
94826,0,0,1
94841,2187,0,0
94848,0,0,0
94854,0,0,0
94860,1718,0,0
94865,0,0,1
94872,0,0,0
94880,2304,0,0
94888,0,0,1
94895,2245,0,0
94902,31,0,0
94908,0,0,0
94914,0,0,0
94920,1906,0,0
94925,0,0,1
94939,4095,0,0
94948,0,0,1
94955,0,0,0
94961,2428,0,0
94966,0,0,1
94973,0,0,0
94982,2112,0,0
94989,0,0,0
95002,0,0,0
95009,0,0,0
95016,1944,0,0
95022,1757,0,0
95028,0,0,0
95034,0,0,0
95040,2150,0,0
95055,0,0,0
95062,0,0,0
95068,0,0,0
95074,0,0,0
95083,0,0,0
95089,0,0,0
95095,0,0,0
95101,2181,0,0
95111,0,0,0
95119,2325,0,0
95126,0,0,1
95133,0,0,0
95139,3977,115,0
95144,0,0,1
95151,0,0,0
95163,0,0,1
95170,0,0,0
95176,2151,0,0
95183,0,0,0
95191,0,0,0
95198,2729,0,0
95203,0,0,1
95210,0,0,0
95223,0,0,1
95230,0,0,0
95236,1782,0,0
95242,0,0,0
95248,0,0,0
95254,0,0,0
95260,18,0,0
95272,0,0,0
95279,443,0,0
95288,0,0,0
95295,749,0,0
95302,0,0,0
95307,0,0,0
95314,0,0,0
95330,0,0,0
95337,205,0,0
95343,0,0,0
95349,0,0,0
95355,0,0,0
95362,0,0,0
95368,0,0,0
95382,1643,0,0
95390,0,0,0
95397,2767,0,0
95402,0,0,0
95409,0,0,0
95415,0,0,0
95421,1555,0,0
95433,0,0,0
95440,511,0,0
95446,0,0,1
95453,0,0,0
95459,0,0,0
95464,0,0,1
95471,0,0,0
95477,425,0,0
95492,0,0,0
95500,3040,0,0
95505,0,0,1
95512,0,0,0
95518,2317,0,0
95524,0,0,1
95535,2559,0,0
95542,0,0,0
95549,0,0,0
95555,0,0,0
95561,835,0,0
95566,0,0,1
95573,0,0,0
95579,3152,0,0
95590,0,0,0
95597,3564,0,0
95603,0,0,1
95610,0,0,0
95616,2398,0,0
95622,0,0,1
95628,0,0,0
95641,3039,0,0
95648,0,0,0
95654,0,0,0
95660,1303,0,0
95665,0,0,1
95672,0,0,0
95678,3239,114,0
95692,0,0,0
95699,2211,0,0
95706,0,0,1
95712,0,0,0
95718,2593,0,0
95723,0,0,1
95730,0,0,0
95743,0,0,1
95749,0,0,0
95755,0,0,0
95761,0,0,1
95766,0,0,1
95773,0,0,0
95779,2832,0,0
95791,0,0,0
95801,1594,0,0
95808,0,0,0
95814,0,0,0
95820,1407,0,0
95825,0,0,1
95832,0,0,0
95845,0,0,1
95852,0,0,0
95859,3307,0,0
95864,0,0,1
95871,0,0,0
95877,3184,0,0
95883,0,0,1
95889,0,0,0
95906,0,0,1
95913,0,0,0
95919,3347,0,0
95924,0,0,1
95931,0,0,0
95937,3185,0,0
95942,0,0,1
95952,0,0,0
95982,0,0,1
95988,0,0,0
95994,0,0,0
96000,1439,0,0
96006,0,0,1
96013,29,0,0
96019,3232,0,0
96032,0,0,0
96040,3311,0,0
96045,0,0,1
96052,0,0,0
96058,3403,0,0
96063,0,0,1
96070,0,0,0
96076,3550,0,0
96089,0,0,0
96096,222,0,0
96102,1281,0,0
96108,0,0,0
96115,0,0,0
96121,0,0,1
96132,0,0,0
96139,2836,0,0
96144,0,0,1
96151,0,0,0
96157,3069,0,0
96162,0,0,1
96169,0,0,0
96175,0,0,0
96186,0,0,1
96193,0,0,0
96200,2309,0,0
96207,0,0,1
96216,0,0,0
96222,0,0,1
96229,0,0,0
96240,0,0,0
96248,0,0,0
96254,0,0,0
96260,0,0,0
96265,0,0,1
96272,0,0,0
96278,112,0,0
96283,0,0,1
96295,0,0,0
96302,0,0,0
96309,0,0,0
96318,225,0,0
96324,0,0,1
96331,0,0,0
96337,1595,0,0
96342,0,0,1
96356,2270,0,0
96362,0,0,1
96369,0,0,0
96375,0,0,0
96383,0,0,1
96389,0,0,0
96395,0,0,0
96409,0,0,0
96420,913,0,0
96427,0,0,1
96433,0,0,0
96439,624,0,0
96444,0,0,1
96451,0,0,0
96457,1920,0,0
96472,0,0,0
96479,2581,0,0
96484,0,0,1
96491,0,0,0
96497,3167,106,0
96502,0,0,1
96509,0,0,0
96523,0,0,1
96530,0,0,0
96537,3825,0,0
96542,0,0,1
96549,0,0,0
96555,259,0,0
96561,289,0,0
96567,0,0,1
96579,2583,0,0
96586,0,0,1
96592,0,0,0
96598,1359,0,0
96603,0,0,1
96610,0,0,0
96620,2314,0,0
96628,0,0,1
96635,739,0,0
96641,692,0,0
96647,0,0,1
96653,0,0,0
96659,2075,0,0
96664,0,0,1
96675,237,0,0
96682,747,0,0
96688,0,0,0
96694,0,0,0
96700,2007,0,0
96705,0,0,1
96712,0,0,0
96721,478,0,0
96735,780,0,0
98051,0,0,0
98058,1947,106,0
98064,0,0,1
98071,0,0,0
98077,3344,0,0
98082,0,0,0
98089,0,0,0
98101,0,0,1
98108,0,0,0
98114,2313,0,0
98120,0,0,0
98126,0,0,0
98132,0,0,0
98138,2928,0,0
98150,0,0,0
98157,1598,0,0
98164,0,0,1
98170,0,0,0
98176,2093,0,0
98181,0,0,0
98188,0,0,0
98201,0,0,1
98208,0,0,0
98214,2069,0,0
98220,0,0,1
98225,0,0,0
98232,0,0,0
98238,1255,0,0
98243,0,0,1
98260,0,0,0
98373,0,0,0
98380,0,0,1
98386,0,0,0
98392,0,0,0
98398,2960,0,0
98403,0,0,1
98410,0,0,0
98424,0,0,1
98431,0,0,0
98438,1554,0,0
98443,0,0,1
98450,0,0,0
98456,2441,0,0
98463,0,0,1
98474,2988,0,0
98482,0,0,1
98488,0,0,0
98494,0,0,0
98500,0,0,1
98506,0,0,0
98512,0,0,0
98518,835,0,0
98532,0,0,0
98539,0,0,1
98544,0,0,1
98551,0,0,0
98557,162,0,0
98564,0,0,1
98571,0,0,0
98581,0,0,1
98588,0,0,0
98595,3233,106,0
98600,0,0,1
98607,0,0,0
98613,0,0,0
98619,673,0,0
98624,0,0,1
98640,1051,0,0
98647,0,0,0
98654,0,0,0
98660,0,0,0
98668,0,0,0
98675,2708,0,0
98680,0,0,1
98693,338,0,0
98701,0,0,1
98707,0,0,0
98713,0,0,0
98719,0,0,1
98725,0,0,1
98731,0,0,0
98737,2668,0,0
98749,0,0,0
98756,2911,0,0
98762,0,0,1
98770,0,0,0
98777,2142,0,0
98783,0,0,1
98789,0,0,0
98800,998,0,0
98807,0,0,0
98813,189,0,0
98819,1023,0,0
98824,0,0,1
98831,0,0,0
98837,2608,0,0
98842,0,0,1
98855,98,0,0
98862,0,0,1
98869,0,0,0
98878,1725,0,0
98884,0,0,1
98891,0,0,0
98897,2209,0,0
98907,0,0,0
98915,3951,0,0
98920,0,0,1
98927,0,0,0
98933,80,0,0
98939,547,0,0
98945,0,0,1
98951,0,0,0
98966,0,0,1
98976,3439,0,0
98982,0,0,1
98989,0,0,0
98995,3537,0,0
99000,0,0,1
99007,0,0,0
99020,0,0,1
99027,0,0,0
99033,552,0,0
99039,901,0,0
99046,0,0,0
99052,0,0,0
99058,464,0,0
99063,0,0,1
99079,754,0,0
99200,0,0,1
99207,0,0,0
99214,4095,0,0
99220,0,0,1
99226,0,0,0
99232,0,0,0
99238,644,0,0
99250,0,0,0
99257,2599,0,0
99262,0,0,1
99269,0,0,0
99275,2867,0,0
99282,0,0,1
99295,707,0,0
99302,0,0,1
99308,0,0,0
99314,2672,0,0
99320,0,0,1
99326,0,0,0
99332,211,0,0
99342,0,0,1
99349,0,0,0
99356,1835,0,0
99361,0,0,1
99368,0,0,0
99374,1657,0,0
99381,0,0,1
99389,0,0,0
99402,0,0,1
100554,2679,0,0
100560,0,0,1
100567,0,0,0
100573,2217,0,0
100579,0,0,0
100585,0,0,0
100591,0,0,0
100606,0,0,0
100614,1843,0,0
100621,0,0,1
100627,0,0,0
100633,2259,0,0
100639,0,0,0
100645,0,0,0
100657,1456,0,0
100665,0,0,0
100672,0,0,0
100678,0,0,0
100684,0,0,0
100690,0,0,0
100696,115,0,0
100707,0,0,0
100715,2703,0,0
100722,0,0,1
100729,0,0,0
100735,2811,0,0
100740,0,0,1
100747,0,0,0
100753,2631,0,0
100766,0,0,0
100773,2864,0,0
100778,0,0,1
100785,0,0,0
100791,0,0,0
100797,523,0,0
100802,0,0,1
100814,2263,0,0
100825,0,0,0
100832,0,0,0
100838,0,0,1
100844,0,0,0
100850,0,0,0
100856,2544,0,0
100861,0,0,1
100875,2426,0,0
100882,0,0,1
100888,0,0,0
100894,1758,0,0
100899,0,0,1
100906,0,0,0
100912,0,0,0
100926,0,0,0
100933,3058,105,0
100938,0,0,1
100945,0,0,0
100951,0,0,0
100957,0,0,1
100962,0,0,1
100969,0,0,0
100981,0,0,1
100988,0,0,0
100995,2525,0,0
101000,0,0,1
101007,0,0,0
101014,2311,0,0
101022,0,0,1
101037,2907,0,0
101044,0,0,0
101050,0,0,0
101056,866,0,0
101061,0,0,1
101068,0,0,0
101074,2559,0,0
101088,0,0,0
101095,2773,0,0
101100,0,0,1
101107,0,0,0
101113,2624,0,0
101119,0,0,1
101125,0,0,0
101132,2919,0,0
101145,0,0,0
101152,3182,0,0
101158,0,0,1
101164,0,0,0
101170,0,0,0
101176,511,0,0
101181,0,0,1
101196,0,0,0
101204,0,0,0
101210,0,0,0
101216,0,0,0
101222,0,0,1
101228,0,0,0
101235,166,0,0
101240,0,0,1
101254,629,0,0
101260,0,0,1
101267,0,0,0
101273,2059,0,0
101278,0,0,1
101285,0,0,0
101297,0,0,0
101304,0,0,0
101310,0,0,0
101316,231,0,0
101322,0,0,1
101331,0,0,0
101338,0,0,1
101344,0,0,0
101357,317,0,0
102565,0,0,0
102572,4095,0,0
102578,0,0,1
102584,0,0,0
102590,0,0,0
102596,0,0,0
102602,0,0,0
102615,2991,0,0
102622,0,0,0
102628,0,0,0
102634,2622,0,0
102639,0,0,1
102646,0,0,0
102652,2995,0,0
102665,0,0,0
102673,3059,0,0
102678,0,0,1
102685,0,0,0
102691,930,0,0
102697,0,0,0
102703,0,0,0
102717,0,0,1
102724,0,0,0
102731,1264,0,0
102737,0,0,0
102743,0,0,0
102749,0,0,0
102755,1118,0,0
102764,0,0,0
102777,0,0,0
102784,0,0,0
102790,2041,0,0
102796,0,0,0
102802,0,0,0
102808,0,0,0
102814,2480,0,0
102826,0,0,0
102833,1698,0,0
102839,0,0,1
102846,0,0,0
102852,2672,0,0
102858,0,0,1
102867,0,0,0
102877,0,0,1
102884,0,0,0
102890,1945,0,0
102896,0,0,0
102902,0,0,0
102908,0,0,0
102914,693,0,0
102919,0,0,1
102932,2604,0,0
102938,0,0,1
102945,0,0,0
102951,1696,0,0
102957,0,0,0
102963,0,0,0
102979,0,0,1
102986,0,0,0
102993,2064,0,0
102998,0,0,1
103005,0,0,0
103012,1285,0,0
103017,0,0,1
103024,0,0,0
103037,0,0,0
103044,0,0,0
103050,1714,0,0
103056,0,0,0
103062,0,0,0
103071,0,0,0
103078,0,0,0
103089,0,0,0
103096,1402,0,0
103102,0,0,0
103108,0,0,0
103114,365,0,0
103119,0,0,1
103126,0,0,0
103139,0,0,1
103146,0,0,0
103152,2732,0,0
103157,0,0,0
103164,0,0,0
103173,2293,0,0
103183,0,0,0
103190,2339,0,0
103196,1291,0,0
103202,0,0,0
103208,0,0,0
103214,410,0,0
103219,0,0,1
103226,0,0,0
103238,0,0,1
103245,0,0,0
103251,2154,0,0
103257,0,0,0
103263,0,0,0
103269,0,0,0
103275,1011,0,0
103287,0,0,0
103294,1233,0,0
103299,0,0,1
103306,0,0,0
103312,1145,0,0
103317,0,0,1
103324,0,0,0
103337,0,0,1
103344,0,0,0
103350,0,0,0
103356,961,0,0
103362,0,0,0
103368,0,0,0
103383,0,0,0
103390,0,0,0
103397,0,0,1
103403,0,0,0
103409,0,0,0
103415,112,0,0
103420,0,0,1
103427,0,0,0
103437,0,0,1
103444,0,0,0
103451,2272,0,0
103456,0,0,1
103463,0,0,0
103469,0,0,0
103475,417,0,0
103493,2624,0,0
103500,0,0,1
103506,0,0,0
103512,1648,0,0
103517,0,0,1
103524,0,0,0
103530,1904,0,0
103536,0,0,1
103548,0,0,0
103555,1125,97,0
103560,0,0,1
103567,0,0,0
103574,2154,0,0
103581,0,0,1
103594,2286,0,0
103601,0,0,1
103607,0,0,0
103613,2360,0,0
103618,0,0,1
103625,0,0,0
103631,1736,0,0
103636,0,0,1
103649,0,0,0
103656,0,0,1
103662,0,0,0
103668,0,0,0
103674,500,0,0
103681,0,0,1
103688,0,0,0
103701,0,0,0
103708,0,0,0
103714,656,0,0
103719,0,0,1
103726,0,0,0
103732,1564,0,0
103737,0,0,1
103748,0,0,0
103755,541,0,0
103761,0,0,1
103767,0,0,0
103773,2079,0,0
103779,0,0,1
103787,0,0,0
103797,0,0,1
103804,0,0,0
103810,2444,0,0
103816,0,0,1
103822,0,0,0
103828,0,0,0
103834,752,0,0
103845,0,0,0
103852,1959,0,0
103857,0,0,1
103864,0,0,0
103870,2242,0,0
103876,0,0,1
103882,0,0,1
103900,0,0,1
103908,0,0,0
103914,0,0,0
103919,0,0,1
103926,0,0,0
103932,1280,0,0
103937,0,0,1
103944,0,0,0
103957,0,0,1
103963,0,0,0
103969,0,0,0
103975,165,0,0
103981,0,0,1
103987,0,0,0
104003,0,0,0
104010,2358,0,0
104016,9,0,0
104023,0,0,0
104029,0,0,0
104035,0,0,0
104046,0,0,0
104054,1939,0,0
104059,0,0,1
104066,0,0,0
104072,2318,0,0
104077,0,0,1
104084,0,0,0
104091,2335,0,0
104109,13,0,0
104116,0,0,1
104122,0,0,0
104128,0,0,0
104134,0,0,0
104139,0,0,1
104146,0,0,0
104156,0,0,1
104203,0,0,0
104209,18,0,0
104215,0,0,0
104221,0,0,1
104227,0,0,0
104233,1663,0,0
104238,0,0,1
104253,2850,0,0
104259,0,0,1
104266,0,0,0
104272,1307,0,0
104277,0,0,1
104284,0,0,0
104296,0,0,1
104308,406,0,0
104314,2016,0,0
104319,0,0,1
104326,0,0,0
104332,1879,0,0
104337,0,0,1
104344,0,0,0
104356,0,0,0
104363,0,0,0
104369,0,0,0
104375,0,0,0
104381,0,0,1
104387,0,0,0
104393,1061,0,0
104402,0,0,1
104417,0,0,1
104424,0,0,0
104430,189,0,0
104435,0,0,0
104442,0,0,0
104448,75,0,0
104454,0,0,0
104463,0,0,0
104504,0,0,0
104514,95,0,0
104522,0,0,0
104528,380,0,0
104534,1771,0,0
104539,0,0,1
104546,0,0,0
104552,1744,0,0
104557,0,0,1
104570,2608,0,0
104576,0,0,1
104583,0,0,0
104589,80,0,0
104595,0,0,0
104601,0,0,1
104607,0,0,0
104620,0,0,1
104627,0,0,0
104633,1472,0,0
104638,0,0,1
104645,0,0,0
104651,2355,0,0
104656,0,0,1
104669,710,0,0
104675,0,0,1
104682,0,0,0
104688,186,0,0
104694,0,0,0
104700,0,0,1
104706,0,0,0
104721,0,0,0
104728,757,0,0
104734,1577,0,0
104739,0,0,1
104746,0,0,0
104752,340,0,0
104757,0,0,1
104771,2947,0,0
104777,0,0,1
104784,0,0,0
104790,1793,0,0
104796,0,0,1
104802,0,0,0
104817,0,0,0
104824,0,0,0
104830,2704,0,0
104835,0,0,1
104842,0,0,0
104848,0,0,0
104854,0,0,0
104866,0,0,0
104874,0,0,0
104881,0,0,1
104887,0,0,0
104893,192,0,0
104898,0,0,1
104905,0,0,0
104918,0,0,1
104925,0,0,0
104932,1308,0,0
104937,0,0,1
104944,0,0,0
104950,1933,0,0
104956,0,0,0
104968,1254,0,0
104977,0,0,1
104983,0,0,0
104989,943,0,0
104995,0,0,0
105001,0,0,1
105007,1162,0,0
105015,0,0,0
105028,295,0,0
105035,0,0,0
105041,0,0,1
105047,0,0,0
105053,158,0,0
105058,0,0,1
105065,0,0,0
105071,2386,0,0
105084,0,0,0
105091,1133,0,0
105096,0,0,1
105103,0,0,0
105109,2116,0,0
105117,0,0,0
105123,0,0,0
105136,0,0,0
105143,0,0,0
105149,490,0,0
105155,0,0,0
105161,0,0,0
105167,0,0,0
105173,0,0,0
105185,0,0,0
105192,2302,0,0
105197,0,0,1
105204,0,0,0
105210,654,0,0
105217,0,0,1
105226,0,0,0
105242,0,0,0
105249,1407,0,0
105255,0,0,0
105261,0,0,0
105267,0,0,0
105273,55,0,0
105278,0,0,1
105287,0,0,0
105299,0,0,0
105331,1662,0,0
105337,0,0,1
105350,987,0,0
105358,0,0,1
105364,0,0,0
105370,954,0,0
105375,0,0,1
105382,0,0,0
105388,1023,0,0
105396,0,0,1
105404,0,0,0
105411,2768,0,0
105417,0,0,1
105426,0,0,0
105433,0,0,0
105438,0,0,1
105451,1744,0,0
105458,0,0,1
105464,0,0,0
105470,1223,0,0
105475,0,0,0
105482,0,0,0
105488,1210,0,0
105499,0,0,1
105507,0,0,0
105513,0,0,0
105519,0,0,1
105525,0,0,0
105534,0,0,0
105541,0,0,1
105553,0,0,0
105561,0,0,0
105568,0,0,0
105574,0,0,0
105579,0,0,0
105586,0,0,0
105592,0,0,0
105597,0,0,1
105610,0,0,0
105617,0,0,1
105623,0,0,0
105631,0,0,0
105637,0,0,1
105644,0,0,0
105650,473,0,0
105655,0,0,1
105669,1535,0,0
105675,0,0,1
105682,0,0,0
105688,1392,0,0
105694,0,0,0
105700,0,0,0
105706,0,0,0
105718,0,0,1
105725,0,0,0
105732,395,0,0
105738,0,0,1
105745,0,0,0
105751,599,0,0
105762,0,0,0
105770,0,0,0
105776,0,0,1
105783,0,0,0
105789,0,0,0
105795,0,0,1
105801,0,0,0
105807,0,0,0
105819,0,0,0
105826,0,0,0
105835,0,0,1
105842,0,0,0
105848,745,0,0
105854,0,0,1
105866,0,0,0
105874,0,0,1
105880,0,0,0
105886,0,0,0
105892,0,0,0
105897,0,0,1
105904,0,0,0
105910,694,0,0
105923,0,0,0
105929,1274,0,0
105937,0,0,1
105944,0,0,0
105950,39,0,0
105955,0,0,1
105962,0,0,0
105978,0,0,1
105985,0,0,0
105992,0,0,0
105997,0,0,1
106004,0,0,0
106010,199,0,0
106015,0,0,1
106027,0,0,0
106035,0,0,1
106041,0,0,0
106048,1527,0,0
106054,0,0,0
106061,0,0,0
106067,0,0,0
106073,53,0,0
106085,0,0,0
106093,474,0,0
106098,0,0,1
106105,0,0,0
106111,1082,0,0
106116,0,0,1
106123,0,0,0
106134,112,0,0
106142,0,0,0
106149,2096,0,0
106154,0,0,1
106161,0,0,0
106167,0,0,0
106173,0,0,1
106178,0,0,1
106191,1685,0,0
106199,0,0,1
106205,0,0,0
106211,773,0,0
106216,0,0,1
106223,0,0,0
106229,1968,0,0
106234,0,0,1
106247,0,0,0
106254,0,0,0
106260,0,0,0
106266,0,0,0
106272,0,0,0
106277,0,0,1
106284,0,0,0
106298,0,0,1
106306,0,0,0
106312,0,0,0
106317,0,0,1
106324,0,0,0
106330,1535,0,0
106335,0,0,1
106342,0,0,0
106356,0,0,1
106363,0,0,0
106369,1563,0,0
106374,0,0,1
106381,0,0,0
106387,0,0,0
106393,0,0,1
106405,0,0,0
106412,0,0,0
106417,0,0,1
106424,0,0,0
106430,938,0,0
106435,0,0,1
106442,0,0,0
106456,0,0,1
106463,0,0,0
106470,653,0,0
106475,0,0,1
106482,0,0,0
106488,1382,0,0
106494,0,0,1
106500,0,0,0
106514,0,0,1
106520,0,0,0
106526,0,0,0
106532,0,0,0
106537,0,0,1
106544,0,0,0
106552,0,0,0
106567,0,0,0
106575,0,0,1
106581,0,0,0
106587,0,0,0
106593,0,0,0
106599,0,0,1
106605,0,0,0
106615,0,0,1
106622,0,0,0
106628,1804,0,0
106634,0,0,1
106640,0,0,0
106646,0,0,0
106654,0,0,0
106661,0,0,0
106675,0,0,0
106681,0,0,0
106687,0,0,0
106693,0,0,0
106699,0,0,1
106705,0,0,0
106711,1291,0,0
106716,0,0,1
106732,2162,75,0
106739,0,0,1
106745,0,0,0
106751,0,0,0
106758,0,0,1
106765,0,0,0
106771,0,0,0
106776,0,0,1
106790,455,0,0
106797,0,0,1
106803,0,0,0
106809,1373,0,0
106814,0,0,1
106821,0,0,0
106832,0,0,0
106839,0,0,1
106845,0,0,0
106851,0,0,0
106858,0,0,1
106865,0,0,0
106871,0,0,0
106876,0,0,1
106890,54,0,0
106897,0,0,1
106903,0,0,0
106909,84,0,0
106914,0,0,1
106921,0,0,0
106927,0,0,0
106938,0,0,1
106945,0,0,0
106951,0,0,0
106961,0,0,0
106968,0,0,0
106974,0,0,0
106987,225,0,0
106995,0,0,0
107001,0,0,0
107007,0,0,0
107013,0,0,1
107020,0,0,0
107026,0,0,0
107032,0,0,0
107044,0,0,0
107051,0,0,0
107058,0,0,1
107065,0,0,0
107072,0,0,0
107077,0,0,1
107084,0,0,0
107095,0,0,1
107102,0,0,0
107109,416,0,0
107114,0,0,1
107121,0,0,0
107127,0,0,0
107133,0,0,0
107139,0,0,1
107152,0,0,0
107159,0,0,0
107167,0,0,0
107173,0,0,1
107180,0,0,0
107186,0,0,0
107192,0,0,0
107197,0,0,1
107211,877,0,0
107217,0,0,1
107224,0,0,0
107230,1677,0,0
107235,0,0,1
107242,0,0,0
107252,432,0,0
107259,0,0,0
107269,256,0,0
107276,0,0,1
107282,0,0,0
107288,1396,0,0
107293,0,0,1
107300,0,0,0
107313,0,0,1
108572,1280,0,0
108578,0,0,0
108584,0,0,0
108590,197,0,0
108597,0,0,1
108606,1646,0,0
108612,0,0,0
108625,0,0,0
108632,0,0,1
108638,0,0,0
108644,0,0,0
108650,0,0,0
108655,0,0,1
108662,0,0,0
108673,0,0,1
108680,0,0,0
108686,0,0,0
108692,0,0,1
108701,0,0,0
108708,0,0,0
108719,0,0,0
108728,1612,0,0
108734,0,0,1
108741,0,0,0
108747,675,0,0
108752,0,0,1
108759,0,0,0
108765,0,0,0
108776,0,0,1
108784,0,0,0
108791,0,0,1
108797,0,0,1
108806,0,0,0
108812,0,0,1
108819,0,0,0
108829,1785,0,0
108836,0,0,1
108842,0,0,0
108848,962,0,0
108853,0,0,1
108860,0,0,0
108866,0,0,0
108872,0,0,1
108883,0,0,0
108891,0,0,0
108897,0,0,1
108907,1585,0,0
108912,0,0,1
108919,0,0,0
108925,0,0,0
108936,0,0,1
108943,0,0,0
108949,1360,0,0
108954,0,0,1
108961,0,0,0
108967,1421,0,0
108972,0,0,1
108979,0,0,0
108992,0,0,0
108999,0,0,0
109009,999,0,0
109016,0,0,1
109022,0,0,0
109028,1327,0,0
109033,0,0,1
109045,3238,65,0
109053,0,0,1
109059,0,0,0
109066,2496,0,0
109072,0,0,1
109078,0,0,0
109084,0,0,0
109090,1278,0,0
109100,0,0,0
109112,140,0,0
109119,0,0,0
109125,89,0,0
109131,0,0,0
109137,0,0,1
109143,0,0,0
109155,0,0,1
109162,0,0,0
109168,3522,0,0
109173,0,0,1
109180,0,0,0
109186,2558,0,0
109192,0,0,1
109205,2756,0,0
109214,0,0,1
109221,0,0,0
109227,3094,0,0
109232,0,0,1
109239,0,0,0
109245,662,0,0
109257,0,0,1
109264,1047,0,0
109271,725,0,0
109277,0,0,1
109283,0,0,0
109289,1643,0,0
109294,0,0,1
109301,0,0,0
109316,0,0,1
109323,0,0,0
109329,2867,0,0
109334,0,0,1
109341,0,0,0
109347,3836,0,0
109352,0,0,1
109366,3610,0,0
109373,0,0,1
109379,0,0,0
109385,659,0,0
109391,19,0,0
109397,0,0,1
109403,0,0,0
109413,0,0,1
109424,1591,0,0
109431,0,0,1
109437,0,0,1
109443,0,0,0
109449,2768,0,0
109454,0,0,1
109461,0,0,0
109473,0,0,1
109480,0,0,0
109486,1470,0,0
109491,0,0,1
109498,0,0,0
109504,1116,0,0
109510,283,0,0
109516,0,0,1
109531,0,0,1
109538,0,0,0
109544,0,0,0
109550,129,0,0
109555,0,0,1
109562,0,0,0
109568,2523,0,0
109580,0,0,0
109587,4095,74,0
109593,0,0,1
109599,0,0,0
109605,1132,0,0
109611,0,0,0
109617,0,0,1
109630,687,0,0
109637,0,0,1
109643,0,0,0
109649,2762,0,0
109654,0,0,1
109661,0,0,0
109667,4095,0,0
109672,0,0,1
109689,558,0,0
109698,0,0,0
109705,851,0,0
