emg_ts,raw,clean,envelope
380061,1977,1977,1977
380062,1982,1982,1982
380063,1975,1975,1975
380064,1975,1975,1975
380065,1971,1971,1971
380066,1971,1971,1971
380067,1971,1971,1971
380068,1972,1972,1972
380069,1973,1973,1973
380070,1971,1971,1971
380078,1986,1986,1986
380079,1985,1985,1985
380080,1988,1988,1988
380081,1983,1983,1983
380082,1984,1984,1984
380083,1979,1979,1979
380084,1974,1974,1974
380085,1984,1984,1984
380086,1979,1979,1979
380087,1982,1982,1982
380090,1959,1959,1959
380091,1957,1957,1957
380092,1958,1958,1958
380093,1953,1953,1953
380094,1953,1953,1953
380095,1951,1951,1951
380096,1949,1949,1949
380097,1949,1949,1949
380098,1947,1947,1947
380099,1945,1945,1945
380101,1925,1925,1925
380102,1946,1946,1946
380103,1939,1939,1939
380104,1937,1937,1937
380105,1936,1936,1936
380106,1936,1936,1936
380107,1931,1931,1931
380108,1932,1932,1932
380109,1929,1929,1929
380110,1922,1922,1922
380112,1904,1904,1904
380113,1904,1904,1904
380114,1921,1921,1921
380115,1915,1915,1915
380116,1919,1919,1919
380117,1911,1911,1911
380118,1915,1915,1915
380119,1910,1910,1910
380120,1905,1905,1905
380121,1906,1906,1906
380125,1887,1887,1887
380126,1895,1895,1895
380127,1884,1884,1884
380128,1895,1895,1895
380129,1883,1883,1883
380130,1899,1899,1899
380131,1893,1893,1893
380132,1898,1898,1898
380133,1894,1894,1894
380134,1890,1890,1890
380138,1875,1875,1875
380139,1874,1874,1874
380140,1870,1870,1870
380141,1871,1871,1871
380142,1867,1867,1867
380143,1866,1866,1866
380144,1861,1861,1861
380145,1857,1857,1857
380146,1878,1878,1878
380147,1877,1877,1877
380149,1853,1853,1853
380150,1854,1854,1854
380151,1853,1853,1853
380152,1856,1856,1856
380153,1852,1852,1852
380154,1857,1857,1857
380155,1857,1857,1857
380156,1860,1860,1860
380157,1865,1865,1865
380158,1857,1857,1857
380160,1862,1862,1862
380161,1868,1868,1868
380162,1864,1864,1864
380163,1871,1871,1871
380164,1868,1868,1868
380165,1867,1867,1867
380166,1871,1871,1871
380167,1874,1874,1874
380168,1872,1872,1872
380169,1873,1873,1873
380173,1870,1870,1870
380174,1867,1867,1867
380175,1873,1873,1873
380176,1872,1872,1872
380177,1877,1877,1877
380178,1879,1879,1879
380179,1872,1872,1872
380180,1851,1851,1851
380181,1872,1872,1872
380182,1870,1870,1870
380187,1867,1867,1867
380188,1871,1871,1871
380189,1869,1869,1869
380190,1875,1875,1875
380191,1883,1883,1883
380192,1885,1885,1885
380193,1871,1871,1871
380194,1871,1871,1871
380195,1867,1867,1867
380196,1871,1871,1871
380198,1901,1901,1901
380199,1900,1900,1900
380200,1903,1903,1903
380201,1901,1901,1901
380202,1902,1902,1902
380203,1901,1901,1901
380204,1898,1898,1898
380205,1899,1899,1899
380206,1893,1893,1893
380207,1898,1898,1898
380216,1887,1887,1887
380217,1889,1889,1889
380218,1887,1887,1887
380219,1889,1889,1889
380220,1889,1889,1889
380221,1885,1885,1885
380222,1889,1889,1889
380223,1886,1886,1886
380224,1887,1887,1887
380225,1888,1888,1888
380230,1890,1890,1890
380231,1893,1893,1893
380232,1891,1891,1891
380233,1901,1901,1901
380234,1901,1901,1901
380235,1904,1904,1904
380236,1902,1902,1902
380237,1904,1904,1904
380238,1904,1904,1904
380239,1907,1907,1907
380241,1902,1902,1902
380242,1903,1903,1903
380243,1907,1907,1907
380244,1907,1907,1907
380245,1905,1905,1905
380246,1903,1903,1903
380247,1901,1901,1901
380248,1897,1897,1897
380249,1901,1901,1901
380250,1898,1898,1898
380252,1903,1903,1903
380253,1901,1901,1901
380254,1894,1894,1894
380255,1894,1894,1894
380256,1903,1903,1903
380257,1899,1899,1899
380258,1902,1902,1902
380259,1904,1904,1904
380260,1904,1904,1904
380261,1900,1900,1900
380264,1918,1918,1918
380265,1904,1904,1904
380266,1904,1904,1904
380267,1900,1900,1900
380268,1904,1904,1904
380269,1899,1899,1899
380270,1899,1899,1899
380271,1903,1903,1903
380272,1903,1903,1903
380273,1902,1902,1902
380277,1917,1917,1917
380278,1917,1917,1917
380279,1917,1917,1917
380280,1920,1920,1920
380281,1917,1917,1917
380282,1917,1917,1917
380283,1905,1905,1905
380284,1915,1915,1915
380285,1913,1913,1913
380286,1917,1917,1917
380288,1910,1910,1910
380289,1910,1910,1910
380290,1911,1911,1911
380291,1910,1910,1910
380292,1911,1911,1911
380293,1910,1910,1910
380294,1909,1909,1909
380295,1914,1914,1914
380296,1910,1910,1910
380297,1911,1911,1911
380299,1905,1905,1905
380300,1908,1908,1908
380301,1907,1907,1907
380302,1907,1907,1907
380303,1904,1904,1904
380304,1905,1905,1905
380305,1909,1909,1909
380306,1905,1905,1905
380307,1904,1904,1904
380308,1910,1910,1910
380310,1904,1904,1904
380311,1901,1901,1901
380312,1901,1901,1901
380313,1897,1897,1897
380314,1894,1894,1894
380315,1895,1895,1895
380316,1897,1897,1897
380317,1883,1883,1883
380318,1894,1894,1894
380319,1895,1895,1895
380322,1892,1892,1892
380323,1890,1890,1890
380324,1890,1890,1890
380325,1899,1899,1899
380326,1887,1887,1887
380327,1886,1886,1886
380328,1884,1884,1884
380329,1883,1883,1883
380330,1891,1891,1891
380331,1889,1889,1889
380333,1903,1903,1903
380334,1904,1904,1904
380335,1904,1904,1904
380336,1893,1893,1893
380337,1893,1893,1893
380338,1900,1900,1900
380339,1902,1902,1902
380340,1898,1898,1898
380341,1900,1900,1900
380342,1904,1904,1904
380350,1904,1904,1904
380351,1911,1911,1911
380352,1904,1904,1904
380353,1906,1906,1906
380354,1910,1910,1910
380355,1906,1906,1906
380356,1904,1904,1904
380357,1925,1925,1925
380358,1910,1910,1910
380359,1917,1917,1917
380361,1901,1901,1901
380362,1909,1909,1909
380363,1904,1904,1904
380364,1904,1904,1904
380365,1904,1904,1904
380366,1895,1895,1895
380367,1897,1897,1897
380368,1898,1898,1898
380369,1903,1903,1903
380370,1900,1900,1900
380372,1903,1903,1903
380373,1901,1901,1901
380374,1899,1899,1899
380375,1904,1904,1904
380376,1904,1904,1904
380377,1903,1903,1903
380378,1904,1904,1904
380379,1904,1904,1904
380380,1904,1904,1904
380381,1914,1914,1914
380384,1907,1907,1907
380385,1907,1907,1907
380386,1907,1907,1907
380387,1901,1901,1901
380388,1900,1900,1900
380389,1902,1902,1902
380390,1902,1902,1902
380391,1897,1897,1897
380392,1903,1903,1903
380393,1905,1905,1905
380396,1927,1927,1927
380397,1931,1931,1931
380398,1931,1931,1931
380399,1932,1932,1932
380400,1936,1936,1936
380401,1913,1913,1913
380402,1915,1915,1915
380403,1922,1922,1922
380404,1923,1923,1923
380405,1923,1923,1923
380407,1957,1957,1957
380408,1955,1955,1955
380409,1963,1963,1963
380410,1963,1963,1963
380411,1967,1967,1967
380412,1965,1965,1965
380413,1968,1968,1968
380414,1940,1940,1940
380415,1953,1953,1953
380416,1953,1953,1953
380425,1967,1967,1967
380426,1965,1965,1965
380427,1968,1968,1968
380428,1968,1968,1968
380429,1973,1973,1973
380430,1968,1968,1968
380431,1970,1970,1970
380432,1968,1968,1968
380433,1968,1968,1968
380434,1966,1966,1966
380437,1991,1991,1991
380438,1991,1991,1991
380439,1997,1997,1997
380440,1998,1998,1998
380441,1996,1996,1996
380442,1997,1997,1997
380443,2000,2000,2000
380444,1983,1983,1983
380445,1986,1986,1986
380446,1987,1987,1987
380448,1998,1998,1998
380449,1994,1994,1994
380450,1997,1997,1997
380451,2000,2000,2000
380452,2000,2000,2000
380453,2000,2000,2000
380454,2001,2001,2001
380455,2004,2004,2004
380456,1997,1997,1997
380457,1994,1994,1994
380459,2005,2005,2005
380460,2010,2010,2010
380461,2013,2013,2013
380462,2014,2014,2014
380463,2016,2016,2016
380464,2018,2018,2018
380465,2016,2016,2016
380466,2013,2013,2013
380467,2016,2016,2016
380468,2003,2003,2003
380470,2013,2013,2013
380471,2032,2032,2032
380472,2008,2008,2008
380473,2006,2006,2006
380474,2012,2012,2012
380475,2010,2010,2010
380476,2007,2007,2007
380477,2010,2010,2010
380478,2011,2011,2011
380479,2015,2015,2015
380482,2000,2000,2000
380483,2014,2014,2014
380484,2018,2018,2018
380485,2016,2016,2016
380486,2010,2010,2010
380487,2015,2015,2015
380488,2011,2011,2011
380489,2010,2010,2010
380490,2005,2005,2005
380491,2000,2000,2000
380494,2003,2003,2003
380495,2003,2003,2003
380496,2004,2004,2004
380497,2000,2000,2000
380498,2002,2002,2002
380499,2000,2000,2000
380500,2003,2003,2003
380501,2003,2003,2003
380502,2000,2000,2000
380503,2006,2006,2006
380505,1975,1975,1975
380506,1971,1971,1971
380507,1972,1972,1972
380508,1969,1969,1969
380509,1966,1966,1966
380510,1998,1998,1998
380511,1991,1991,1991
380512,1986,1986,1986
380513,1983,1983,1983
380514,1978,1978,1978
380516,1983,1983,1983
380517,1978,1978,1978
380518,1977,1977,1977
380519,1973,1973,1973
380520,1969,1969,1969
380521,1971,1971,1971
380522,1971,1971,1971
380523,1970,1970,1970
380524,1974,1974,1974
380525,1971,1971,1971
380527,1963,1963,1963
380528,1966,1966,1966
380529,1965,1965,1965
380530,1968,1968,1968
380531,1959,1959,1959
380532,1963,1963,1963
380533,1968,1968,1968
380534,1965,1965,1965
380535,1965,1965,1965
380536,1964,1964,1964
380539,1967,1967,1967
380540,1968,1968,1968
380541,1968,1968,1968
380542,1968,1968,1968
380543,1972,1972,1972
380544,1969,1969,1969
380545,1957,1957,1957
380546,1973,1973,1973
380547,1966,1966,1966
380548,1968,1968,1968
380550,1968,1968,1968
380551,1968,1968,1968
380552,1968,1968,1968
380553,1968,1968,1968
380554,1968,1968,1968
380555,1968,1968,1968
380556,1967,1967,1967
380557,1969,1969,1969
380558,1973,1973,1973
380559,1970,1970,1970
380567,1950,1950,1950
380568,1946,1946,1946
380569,1946,1946,1946
380570,1941,1941,1941
380571,1945,1945,1945
380572,1947,1947,1947
380573,1955,1955,1955
380574,1956,1956,1956
380575,1957,1957,1957
380576,1951,1951,1951
380579,1954,1954,1954
380580,1957,1957,1957
380581,1959,1959,1959
380582,1958,1958,1958
380583,1958,1958,1958
380584,1959,1959,1959
380585,1955,1955,1955
380586,1963,1963,1963
380587,1959,1959,1959
380588,1953,1953,1953
380703,1931,1931,1931
380704,1928,1928,1928
380705,1968,1968,1968
380706,1959,1959,1959
380707,1958,1958,1958
380708,1952,1952,1952
380709,1949,1949,1949
380710,1938,1938,1938
380711,1937,1937,1937
380712,1933,1933,1933
380714,1920,1920,1920
380715,1919,1919,1919
380716,1927,1927,1927
380717,1923,1923,1923
380718,1923,1923,1923
380719,1923,1923,1923
380720,1921,1921,1921
380721,1921,1921,1921
380722,1921,1921,1921
380723,1920,1920,1920
380725,1915,1915,1915
380726,1918,1918,1918
380727,1917,1917,1917
380728,1917,1917,1917
380729,1920,1920,1920
380730,1921,1921,1921
380731,1920,1920,1920
380732,1919,1919,1919
380733,1919,1919,1919
380734,1919,1919,1919
380736,1925,1925,1925
380737,1927,1927,1927
380738,1926,1926,1926
380739,1923,1923,1923
380740,1920,1920,1920
380741,1922,1922,1922
380742,1925,1925,1925
380743,1925,1925,1925
380744,1924,1924,1924
380745,1924,1924,1924
380748,1909,1909,1909
380749,1910,1910,1910
380750,1913,1913,1913
380751,1911,1911,1911
380752,1908,1908,1908
380753,1908,1908,1908
380754,1910,1910,1910
380755,1916,1916,1916
380756,1911,1911,1911
380757,1909,1909,1909
380759,1913,1913,1913
380760,1917,1917,1917
380761,1916,1916,1916
380762,1911,1911,1911
380763,1911,1911,1911
380764,1908,1908,1908
380765,1910,1910,1910
380766,1907,1907,1907
380767,1908,1908,1908
380768,1912,1912,1912
380777,1886,1886,1886
380778,1882,1882,1882
380779,1884,1884,1884
380780,1879,1879,1879
380781,1883,1883,1883
380782,1879,1879,1879
380783,1881,1881,1881
380784,1889,1889,1889
380785,1887,1887,1887
380786,1885,1885,1885
380789,1874,1874,1874
380790,1873,1873,1873
380791,1877,1877,1877
380792,1875,1875,1875
380793,1872,1872,1872
380794,1872,1872,1872
380795,1872,1872,1872
380796,1872,1872,1872
380797,1882,1882,1882
380798,1877,1877,1877
380800,1871,1871,1871
380801,1871,1871,1871
380802,1870,1870,1870
380803,1872,1872,1872
380804,1872,1872,1872
380805,1867,1867,1867
380806,1872,1872,1872
380807,1872,1872,1872
380808,1872,1872,1872
380809,1872,1872,1872
380811,1888,1888,1888
380812,1873,1873,1873
380813,1873,1873,1873
380814,1879,1879,1879
380815,1877,1877,1877
380816,1882,1882,1882
380817,1887,1887,1887
380818,1891,1891,1891
380819,1891,1891,1891
380820,1893,1893,1893
380823,1892,1892,1892
380824,1889,1889,1889
380825,1891,1891,1891
380826,1892,1892,1892
380827,1891,1891,1891
380828,1889,1889,1889
380829,1895,1895,1895
380830,1886,1886,1886
380831,1883,1883,1883
380832,1886,1886,1886
380835,1919,1919,1919
380836,1918,1918,1918
380837,1919,1919,1919
380838,1920,1920,1920
380839,1921,1921,1921
380840,1907,1907,1907
380841,1906,1906,1906
380842,1909,1909,1909
380843,1910,1910,1910
380844,1915,1915,1915
380908,1953,1953,1953
380909,1951,1951,1951
380910,1951,1951,1951
380911,1950,1950,1950
380912,1952,1952,1952
380913,1955,1955,1955
380914,1958,1958,1958
380915,1950,1950,1950
380916,1946,1946,1946
380917,1945,1945,1945
380919,1970,1970,1970
380920,1971,1971,1971
380921,1972,1972,1972
380922,1975,1975,1975
380923,1973,1973,1973
380924,1973,1973,1973
380925,1975,1975,1975
380926,1981,1981,1981
380927,1976,1976,1976
380928,1978,1978,1978
380930,1977,1977,1977
380931,1979,1979,1979
380932,1983,1983,1983
380933,1981,1981,1981
380934,1981,1981,1981
380935,1983,1983,1983
380936,1980,1980,1980
380937,1977,1977,1977
380938,1997,1997,1997
380939,1975,1975,1975
380941,1949,1949,1949
380942,1968,1968,1968
380943,1969,1969,1969
380944,1967,1967,1967
380945,1959,1959,1959
380946,1966,1966,1966
380947,1957,1957,1957
380948,1954,1954,1954
380949,1953,1953,1953
380950,1952,1952,1952
380953,1971,1971,1971
380954,1974,1974,1974
380955,1982,1982,1982
380956,1955,1955,1955
380957,1956,1956,1956
380958,1961,1961,1961
380959,1967,1967,1967
380960,1968,1968,1968
380961,1969,1969,1969
380962,1975,1975,1975
380964,2000,2000,2000
380965,2001,2001,2001
380966,2003,2003,2003
380967,2004,2004,2004
380968,1982,1982,1982
380969,1984,1984,1984
380970,1984,1984,1984
380971,1986,1986,1986
380972,1997,1997,1997
380973,2000,2000,2000
380982,1971,1971,1971
380983,2000,2000,2000
380984,1998,1998,1998
380985,1995,1995,1995
380986,1989,1989,1989
380987,1987,1987,1987
380988,1986,1986,1986
380989,1979,1979,1979
380990,1977,1977,1977
380991,1974,1974,1974
380994,1947,1947,1947
380995,1947,1947,1947
380996,1947,1947,1947
380997,1938,1938,1938
380998,1967,1967,1967
380999,1961,1961,1961
381000,1963,1963,1963
381001,1958,1958,1958
381002,1954,1954,1954
381003,1949,1949,1949
381115,1977,1977,1977
381116,1983,1983,1983
381117,1983,1983,1983
381118,1984,1984,1984
381119,1982,1982,1982
381120,1953,1953,1953
381121,1959,1959,1959
381122,1959,1959,1959
381123,1969,1969,1969
381124,1975,1975,1975
381126,1973,1973,1973
381127,1971,1971,1971
381128,1968,1968,1968
381129,1970,1970,1970
381130,1968,1968,1968
381131,1968,1968,1968
381132,1981,1981,1981
381133,1978,1978,1978
381134,1977,1977,1977
381135,1976,1976,1976
381137,1979,1979,1979
381138,1984,1984,1984
381139,1983,1983,1983
381140,1984,1984,1984
381141,1983,1983,1983
381142,1981,1981,1981
381143,1977,1977,1977
381144,1969,1969,1969
381145,1975,1975,1975
381146,1973,1973,1973
381148,1973,1973,1973
381149,1972,1972,1972
381150,1973,1973,1973
381151,1975,1975,1975
381152,1977,1977,1977
381153,1978,1978,1978
381154,1983,1983,1983
381155,1982,1982,1982
381156,1973,1973,1973
381157,1970,1970,1970
381160,1989,1989,1989
381161,1990,1990,1990
381162,1995,1995,1995
381163,1986,1986,1986
381164,1998,1998,1998
381165,2000,2000,2000
381166,1995,1995,1995
381167,2000,2000,2000
381168,2000,2000,2000
381169,1986,1986,1986
381172,2001,2001,2001
381173,2010,2010,2010
381174,2000,2000,2000
381175,2001,2001,2001
381176,2002,2002,2002
381177,2001,2001,2001
381178,2000,2000,2000
381179,2005,2005,2005
381180,2000,2000,2000
381181,2001,2001,2001
381183,2004,2004,2004
381184,2006,2006,2006
381185,2005,2005,2005
381186,2017,2017,2017
381187,2010,2010,2010
381188,2010,2010,2010
381189,2007,2007,2007
381190,2006,2006,2006
381191,2009,2009,2009
381192,2011,2011,2011
381196,2017,2017,2017
381197,2016,2016,2016
381198,2017,2017,2017
381199,2015,2015,2015
381200,2005,2005,2005
381201,2010,2010,2010
381202,2015,2015,2015
381203,2013,2013,2013
381204,2018,2018,2018
381205,2015,2015,2015
381208,1984,1984,1984
381209,1983,1983,1983
381210,1982,1982,1982
381211,1975,1975,1975
381212,1975,1975,1975
381213,1968,1968,1968
381214,1966,1966,1966
381215,1965,1965,1965
381216,1998,1998,1998
381217,1991,1991,1991
381222,1943,1943,1943
381223,1955,1955,1955
381224,1949,1949,1949
381225,1948,1948,1948
381226,1945,1945,1945
381227,1943,1943,1943
381228,1949,1949,1949
381229,1946,1946,1946
381230,1946,1946,1946
381231,1943,1943,1943
381233,1942,1942,1942
381234,1937,1937,1937
381235,1936,1936,1936
381236,1943,1943,1943
381237,1945,1945,1945
381238,1943,1943,1943
381239,1942,1942,1942
381240,1943,1943,1943
381241,1941,1941,1941
381242,1941,1941,1941
381250,1894,1894,1894
381251,1893,1893,1893
381252,1911,1911,1911
381253,1882,1882,1882
381254,1875,1875,1875
381255,1872,1872,1872
381256,1872,1872,1872
381257,1870,1870,1870
381258,1867,1867,1867
381259,1897,1897,1897
381262,1839,1839,1839
381263,1840,1840,1840
381264,1856,1856,1856
381265,1855,1855,1855
381266,1850,1850,1850
381267,1850,1850,1850
381268,1847,1847,1847
381269,1849,1849,1849
381270,1846,1846,1846
381271,1840,1840,1840
381273,1842,1842,1842
381274,1840,1840,1840
381275,1840,1840,1840
381276,1836,1836,1836
381277,1840,1840,1840
381278,1838,1838,1838
381279,1840,1840,1840
381280,1840,1840,1840
381281,1840,1840,1840
381282,1842,1842,1842
381284,1826,1826,1826
381285,1824,1824,1824
381286,1827,1827,1827
381287,1827,1827,1827
381288,1840,1840,1840
381289,1840,1840,1840
381290,1834,1834,1834
381291,1831,1831,1831
381292,1833,1833,1833
381293,1830,1830,1830
381301,1838,1838,1838
381302,1839,1839,1839
381303,1837,1837,1837
381304,1845,1845,1845
381305,1845,1845,1845
381306,1840,1840,1840
381307,1840,1840,1840
381308,1857,1857,1857
381309,1841,1841,1841
381310,1852,1852,1852
381313,1866,1866,1866
381314,1869,1869,1869
381315,1869,1869,1869
381316,1855,1855,1855
381317,1858,1858,1858
381318,1858,1858,1858
381319,1860,1860,1860
381320,1866,1866,1866
381321,1864,1864,1864
381322,1859,1859,1859
381324,1850,1850,1850
381325,1845,1845,1845
381326,1846,1846,1846
381327,1842,1842,1842
381328,1867,1867,1867
381329,1866,1866,1866
381330,1863,1863,1863
381331,1859,1859,1859
381332,1852,1852,1852
381333,1854,1854,1854
381335,1841,1841,1841
381336,1841,1841,1841
381337,1844,1844,1844
381338,1843,1843,1843
381339,1844,1844,1844
381340,1840,1840,1840
381341,1843,1843,1843
381342,1840,1840,1840
381343,1840,1840,1840
381344,1841,1841,1841
381346,1855,1855,1855
381347,1853,1853,1853
381348,1855,1855,1855
381349,1853,1853,1853
381350,1857,1857,1857
381351,1858,1858,1858
381352,1846,1846,1846
381353,1845,1845,1845
381354,1844,1844,1844
381355,1847,1847,1847
381358,1861,1861,1861
381359,1870,1870,1870
381360,1859,1859,1859
381361,1861,1861,1861
381362,1867,1867,1867
381363,1863,1863,1863
381364,1857,1857,1857
381365,1862,1862,1862
381366,1857,1857,1857
381367,1862,1862,1862
381370,1872,1872,1872
381371,1871,1871,1871
381372,1879,1879,1879
381373,1879,1879,1879
381374,1883,1883,1883
381375,1886,1886,1886
381376,1888,1888,1888
381377,1879,1879,1879
381378,1894,1894,1894
381379,1902,1902,1902
381387,1897,1897,1897
381388,1900,1900,1900
381389,1899,1899,1899
381390,1899,1899,1899
381391,1904,1904,1904
381392,1908,1908,1908
381393,1890,1890,1890
381394,1899,1899,1899
381395,1898,1898,1898
381396,1895,1895,1895
381402,1923,1923,1923
381403,1918,1918,1918
381404,1921,1921,1921
381405,1920,1920,1920
381406,1921,1921,1921
381407,1920,1920,1920
381408,1919,1919,1919
381409,1923,1923,1923
381410,1929,1929,1929
381411,1923,1923,1923
381413,1947,1947,1947
381414,1952,1952,1952
381415,1947,1947,1947
381416,1951,1951,1951
381417,1931,1931,1931
381418,1934,1934,1934
381419,1937,1937,1937
381420,1946,1946,1946
381421,1946,1946,1946
381422,1938,1938,1938
381522,1968,1968,1968
381523,1979,1979,1979
381524,1980,1980,1980
381525,1978,1978,1978
381526,1981,1981,1981
381527,1978,1978,1978
381528,1975,1975,1975
381529,1972,1972,1972
381530,1970,1970,1970
381531,1969,1969,1969
381533,1977,1977,1977
381534,1977,1977,1977
381535,1975,1975,1975
381536,1968,1968,1968
381537,1936,1936,1936
381538,1967,1967,1967
381539,1970,1970,1970
381540,1970,1970,1970
381541,1973,1973,1973
381542,1975,1975,1975
381544,1986,1986,1986
381545,1990,1990,1990
381546,1998,1998,1998
381547,2000,2000,2000
381548,1975,1975,1975
381549,1980,1980,1980
381550,1978,1978,1978
381551,1981,1981,1981
381552,1984,1984,1984
381553,1985,1985,1985
381555,2014,2014,2014
381556,2023,2023,2023
381557,2019,2019,2019
381558,2018,2018,2018
381559,2015,2015,2015
381560,2005,2005,2005
381561,2007,2007,2007
381562,2014,2014,2014
381563,2013,2013,2013
381564,2017,2017,2017
381567,2007,2007,2007
381568,1990,1990,1990
381569,2000,2000,2000
381570,2002,2002,2002
381571,2006,2006,2006
381572,2009,2009,2009
381573,2007,2007,2007
381574,2007,2007,2007
381575,2003,2003,2003
381576,2000,2000,2000
381579,2018,2018,2018
381580,2016,2016,2016
381581,2021,2021,2021
381582,2022,2022,2022
381583,2018,2018,2018
381584,2022,2022,2022
381585,2017,2017,2017
381586,2021,2021,2021
381587,2018,2018,2018
381588,2011,2011,2011
381590,2011,2011,2011
381591,2012,2012,2012
381592,2018,2018,2018
381593,2017,2017,2017
381594,2014,2014,2014
381595,2015,2015,2015
381596,2017,2017,2017
381597,2022,2022,2022
381598,2029,2029,2029
381599,2027,2027,2027
381601,2027,2027,2027
381602,2027,2027,2027
381603,2027,2027,2027
381604,2030,2030,2030
381605,2023,2023,2023
381606,2029,2029,2029
381607,2021,2021,2021
381608,2025,2025,2025
381609,2031,2031,2031
381610,2021,2021,2021
381613,2026,2026,2026
381614,2022,2022,2022
381615,2023,2023,2023
381616,2022,2022,2022
381617,2031,2031,2031
381618,2026,2026,2026
381619,2027,2027,2027
381620,2024,2024,2024
381621,2021,2021,2021
381622,2022,2022,2022
381626,2007,2007,2007
381627,2013,2013,2013
381628,2008,2008,2008
381629,2012,2012,2012
381630,2012,2012,2012
381631,2012,2012,2012
381632,2016,2016,2016
381633,2007,2007,2007
381634,2013,2013,2013
381635,2007,2007,2007
381637,2002,2002,2002
381638,2000,2000,2000
381639,2000,2000,2000
381640,2000,2000,2000
381641,2000,2000,2000
381642,1999,1999,1999
381643,1995,1995,1995
381644,2011,2011,2011
381645,2001,2001,2001
381646,2003,2003,2003
381648,1995,1995,1995
381649,1995,1995,1995
381650,1995,1995,1995
381651,1995,1995,1995
381652,1999,1999,1999
381653,1998,1998,1998
381654,1999,1999,1999
381655,2001,2001,2001
381656,1990,1990,1990
381657,1995,1995,1995
381659,2002,2002,2002
381660,2000,2000,2000
381661,2001,2001,2001
381662,2002,2002,2002
381663,2003,2003,2003
381664,2003,2003,2003
381665,2007,2007,2007
381666,2003,2003,2003
381667,2000,2000,2000
381668,2003,2003,2003
381671,2000,2000,2000
381672,2000,2000,2000
381673,2000,2000,2000
381674,2001,2001,2001
381675,2004,2004,2004
381676,2009,2009,2009
381677,2007,2007,2007
381678,2016,2016,2016
381679,2016,2016,2016
381680,2017,2017,2017
381682,2022,2022,2022
381683,2019,2019,2019
381684,2017,2017,2017
381685,2022,2022,2022
381686,2015,2015,2015
381687,2025,2025,2025
381688,2023,2023,2023
381689,2021,2021,2021
381690,2018,2018,2018
381691,2017,2017,2017
381700,1998,1998,1998
381701,1989,1989,1989
381702,1987,1987,1987
381703,1988,1988,1988
381704,1981,1981,1981
381705,1978,1978,1978
381706,1974,1974,1974
381707,1979,1979,1979
381708,1970,1970,1970
381709,1967,1967,1967
381713,1945,1945,1945
381714,1941,1941,1941
381715,1939,1939,1939
381716,1953,1953,1953
381717,1949,1949,1949
381718,1946,1946,1946
381719,1949,1949,1949
381720,1950,1950,1950
381721,1943,1943,1943
381722,1943,1943,1943
381724,1936,1936,1936
381725,1946,1946,1946
381726,1939,1939,1939
381727,1941,1941,1941
381728,1941,1941,1941
381729,1942,1942,1942
381730,1938,1938,1938
381731,1938,1938,1938
381732,1937,1937,1937
381733,1941,1941,1941
381836,1917,1917,1917
381837,1919,1919,1919
381838,1914,1914,1914
381839,1919,1919,1919
381840,1917,1917,1917
381841,1906,1906,1906
381842,1910,1910,1910
381843,1907,1907,1907
381844,1911,1911,1911
381845,1915,1915,1915
381847,1918,1918,1918
381848,1922,1922,1922
381849,1920,1920,1920
381850,1917,1917,1917
381851,1916,1916,1916
381852,1914,1914,1914
381853,1920,1920,1920
381854,1920,1920,1920
381855,1922,1922,1922
381856,1916,1916,1916
381858,1918,1918,1918
381859,1906,1906,1906
381860,1902,1902,1902
381861,1899,1899,1899
381862,1895,1895,1895
381863,1893,1893,1893
381864,1891,1891,1891
381865,1890,1890,1890
381866,1914,1914,1914
381867,1916,1916,1916
381869,1884,1884,1884
381870,1878,1878,1878
381871,1878,1878,1878
381872,1886,1886,1886
381873,1883,1883,1883
381874,1885,1885,1885
381875,1886,1886,1886
381876,1884,1884,1884
381877,1885,1885,1885
381878,1882,1882,1882
381887,1875,1875,1875
381888,1875,1875,1875
381889,1877,1877,1877
381890,1880,1880,1880
381891,1882,1882,1882
381892,1886,1886,1886
381893,1878,1878,1878
381894,1878,1878,1878
381895,1874,1874,1874
381896,1877,1877,1877
381898,1890,1890,1890
381899,1891,1891,1891
381900,1893,1893,1893
381901,1893,1893,1893
381902,1897,1897,1897
381903,1895,1895,1895
381904,1891,1891,1891
381905,1897,1897,1897
381906,1895,1895,1895
381907,1891,1891,1891
381909,1900,1900,1900
381910,1901,1901,1901
381911,1903,1903,1903
381912,1902,1902,1902
381913,1899,1899,1899
381914,1903,1903,1903
381915,1898,1898,1898
381916,1899,1899,1899
381917,1903,1903,1903
381918,1899,1899,1899
381921,1877,1877,1877
381922,1898,1898,1898
381923,1882,1882,1882
381924,1887,1887,1887
381925,1882,1882,1882
381926,1885,1885,1885
381927,1884,1884,1884
381928,1882,1882,1882
381929,1883,1883,1883
381930,1881,1881,1881
381933,1872,1872,1872
381934,1878,1878,1878
381935,1877,1877,1877
381936,1875,1875,1875
381937,1877,1877,1877
381938,1876,1876,1876
381939,1875,1875,1875
381940,1873,1873,1873
381941,1872,1872,1872
381942,1872,1872,1872
381944,1882,1882,1882
381945,1883,1883,1883
381946,1888,1888,1888
381947,1894,1894,1894
381948,1873,1873,1873
381949,1873,1873,1873
381950,1873,1873,1873
381951,1879,1879,1879
381952,1877,1877,1877
381953,1878,1878,1878
381961,1908,1908,1908
381962,1904,1904,1904
381963,1917,1917,1917
381964,1911,1911,1911
381965,1913,1913,1913
381966,1904,1904,1904
381967,1906,1906,1906
381968,1904,1904,1904
381969,1904,1904,1904
381970,1904,1904,1904
381973,1909,1909,1909
381974,1915,1915,1915
381975,1914,1914,1914
381976,1913,1913,1913
381977,1907,1907,1907
381978,1905,1905,1905
381979,1904,1904,1904
381980,1904,1904,1904
381981,1907,1907,1907
381982,1911,1911,1911
381984,1916,1916,1916
381985,1917,1917,1917
381986,1914,1914,1914
381987,1915,1915,1915
381988,1920,1920,1920
381989,1917,1917,1917
381990,1920,1920,1920
381991,1920,1920,1920
381992,1918,1918,1918
381993,1917,1917,1917
381995,1904,1904,1904
381996,1904,1904,1904
381997,1901,1901,1901
381998,1902,1902,1902
381999,1899,1899,1899
382000,1907,1907,1907
382001,1905,1905,1905
382002,1904,1904,1904
382003,1904,1904,1904
382004,1904,1904,1904
382006,1878,1878,1878
382007,1879,1879,1879
382008,1876,1876,1876
382009,1881,1881,1881
382010,1881,1881,1881
382011,1878,1878,1878
382012,1888,1888,1888
382013,1886,1886,1886
382014,1891,1891,1891
382015,1882,1882,1882
382018,1895,1895,1895
382019,1900,1900,1900
382020,1897,1897,1897
382021,1900,1900,1900
382022,1903,1903,1903
382023,1910,1910,1910
382024,1907,1907,1907
382025,1886,1886,1886
382026,1891,1891,1891
382027,1898,1898,1898
382030,1905,1905,1905
382031,1908,1908,1908
382032,1911,1911,1911
382033,1913,1913,1913
382034,1914,1914,1914
382035,1917,1917,1917
382036,1916,1916,1916
382037,1918,1918,1918
382038,1919,1919,1919
382039,1917,1917,1917
382041,1918,1918,1918
382042,1915,1915,1915
382043,1915,1915,1915
382044,1910,1910,1910
382045,1917,1917,1917
382046,1917,1917,1917
382047,1918,1918,1918
382048,1914,1914,1914
382049,1916,1916,1916
382050,1917,1917,1917
382052,1921,1921,1921
382053,1919,1919,1919
382054,1917,1917,1917
382055,1919,1919,1919
382056,1920,1920,1920
382057,1918,1918,1918
382058,1923,1923,1923
382059,1917,1917,1917
382060,1920,1920,1920
382061,1920,1920,1920
382063,1936,1936,1936
382064,1930,1930,1930
382065,1934,1934,1934
382066,1935,1935,1935
382067,1922,1922,1922
382068,1920,1920,1920
382069,1910,1910,1910
382070,1925,1925,1925
382071,1925,1925,1925
382072,1931,1931,1931
382075,1935,1935,1935
382076,1936,1936,1936
382077,1930,1930,1930
382078,1933,1933,1933
382079,1936,1936,1936
382080,1936,1936,1936
382081,1936,1936,1936
382082,1937,1937,1937
382083,1936,1936,1936
382084,1936,1936,1936
382086,1899,1899,1899
382087,1890,1890,1890
382088,1886,1886,1886
382089,1883,1883,1883
382090,1884,1884,1884
382091,1877,1877,1877
382092,1921,1921,1921
382093,1907,1907,1907
382094,1904,1904,1904
382095,1899,1899,1899
382103,1837,1837,1837
382104,1830,1830,1830
382105,1830,1830,1830
382106,1857,1857,1857
382107,1855,1855,1855
382108,1849,1849,1849
382109,1847,1847,1847
382110,1845,1845,1845
382111,1839,1839,1839
382112,1839,1839,1839
382116,1805,1805,1805
382117,1803,1803,1803
382118,1798,1798,1798
382119,1791,1791,1791
382120,1791,1791,1791
382121,1789,1789,1789
382122,1818,1818,1818
382123,1811,1811,1811
382124,1813,1813,1813
382125,1809,1809,1809
382239,1840,1840,1840
382240,1843,1843,1843
382241,1843,1843,1843
382242,1851,1851,1851
382243,1855,1855,1855
382244,1854,1854,1854
382245,1858,1858,1858
382246,1860,1860,1860
382247,1835,1835,1835
382248,1839,1839,1839
382250,1867,1867,1867
382251,1868,1868,1868
382252,1870,1870,1870
382253,1872,1872,1872
382254,1872,1872,1872
382255,1871,1871,1871
382256,1872,1872,1872
382257,1873,1873,1873
382258,1872,1872,1872
382259,1875,1875,1875
382261,1882,1882,1882
382262,1883,1883,1883
382263,1887,1887,1887
382264,1884,1884,1884
382265,1882,1882,1882
382266,1879,1879,1879
382267,1879,1879,1879
382268,1879,1879,1879
382269,1877,1877,1877
382270,1881,1881,1881
382272,1902,1902,1902
382273,1901,1901,1901
382274,1889,1889,1889
382275,1891,1891,1891
382276,1889,1889,1889
382277,1898,1898,1898
382278,1898,1898,1898
382279,1899,1899,1899
382280,1899,1899,1899
382281,1898,1898,1898
382284,1893,1893,1893
382285,1891,1891,1891
382286,1889,1889,1889
382287,1903,1903,1903
382288,1904,1904,1904
382289,1901,1901,1901
382290,1903,1903,1903
382291,1895,1895,1895
382292,1893,1893,1893
382293,1897,1897,1897
382296,1901,1901,1901
382297,1902,1902,1902
382298,1903,1903,1903
382299,1903,1903,1903
382300,1903,1903,1903
382301,1901,1901,1901
382302,1897,1897,1897
382303,1900,1900,1900
382304,1903,1903,1903
382305,1904,1904,1904
382307,1894,1894,1894
382308,1895,1895,1895
382309,1893,1893,1893
382310,1897,1897,1897
382311,1893,1893,1893
382312,1895,1895,1895
382313,1895,1895,1895
382314,1897,1897,1897
382315,1900,1900,1900
382316,1899,1899,1899
382318,1892,1892,1892
382319,1894,1894,1894
382320,1893,1893,1893
382321,1891,1891,1891
382322,1892,1892,1892
382323,1889,1889,1889
382324,1890,1890,1890
382325,1887,1887,1887
382326,1893,1893,1893
382327,1892,1892,1892
382330,1882,1882,1882
382331,1888,1888,1888
382332,1882,1882,1882
382333,1892,1892,1892
382334,1901,1901,1901
382335,1897,1897,1897
382336,1900,1900,1900
382337,1894,1894,1894
382338,1892,1892,1892
382339,1899,1899,1899
382342,1864,1864,1864
382343,1864,1864,1864
382344,1886,1886,1886
382345,1882,1882,1882
382346,1881,1881,1881
382347,1875,1875,1875
382348,1873,1873,1873
382349,1871,1871,1871
382350,1870,1870,1870
382351,1863,1863,1863
382353,1878,1878,1878
382354,1878,1878,1878
382355,1886,1886,1886
382356,1866,1866,1866
382357,1871,1871,1871
382358,1872,1872,1872
382359,1872,1872,1872
382360,1873,1873,1873
382361,1875,1875,1875
382362,1875,1875,1875
382364,1878,1878,1878
382365,1872,1872,1872
382366,1872,1872,1872
382367,1874,1874,1874
382368,1881,1881,1881
382369,1879,1879,1879
382370,1884,1884,1884
382371,1878,1878,1878
382372,1878,1878,1878
382373,1875,1875,1875
382375,1886,1886,1886
382376,1886,1886,1886
382377,1887,1887,1887
382378,1889,1889,1889
382379,1895,1895,1895
382380,1901,1901,1901
382381,1873,1873,1873
382382,1879,1879,1879
382383,1883,1883,1883
382384,1888,1888,1888
382387,1883,1883,1883
382388,1883,1883,1883
382389,1881,1881,1881
382390,1884,1884,1884
382391,1883,1883,1883
382392,1885,1885,1885
382393,1889,1889,1889
382394,1891,1891,1891
382395,1882,1882,1882
382396,1882,1882,1882
382398,1884,1884,1884
382399,1885,1885,1885
382400,1887,1887,1887
382401,1888,1888,1888
382402,1886,1886,1886
382403,1886,1886,1886
382404,1882,1882,1882
382405,1879,1879,1879
382406,1878,1878,1878
382407,1888,1888,1888
382415,1869,1869,1869
382416,1872,1872,1872
382417,1872,1872,1872
382418,1872,1872,1872
382419,1873,1873,1873
382420,1866,1866,1866
382421,1860,1860,1860
382422,1870,1870,1870
382423,1872,1872,1872
382424,1872,1872,1872
382428,1870,1870,1870
382429,1869,1869,1869
382430,1872,1872,1872
382431,1872,1872,1872
382432,1869,1869,1869
382433,1872,1872,1872
382434,1872,1872,1872
382435,1873,1873,1873
382436,1871,1871,1871
382437,1870,1870,1870
382439,1877,1877,1877
382440,1875,1875,1875
382441,1874,1874,1874
382442,1876,1876,1876
382443,1877,1877,1877
382444,1877,1877,1877
382445,1874,1874,1874
382446,1872,1872,1872
382447,1873,1873,1873
382448,1878,1878,1878
382546,1901,1901,1901
382547,1894,1894,1894
382548,1892,1892,1892
382549,1887,1887,1887
382550,1883,1883,1883
382551,1920,1920,1920
382552,1915,1915,1915
382553,1913,1913,1913
382554,1905,1905,1905
382555,1903,1903,1903
382557,1874,1874,1874
382558,1873,1873,1873
382559,1872,1872,1872
382560,1872,1872,1872
382561,1870,1870,1870
382562,1871,1871,1871
382563,1869,1869,1869
382564,1864,1864,1864
382565,1873,1873,1873
382566,1873,1873,1873
382568,1872,1872,1872
382569,1872,1872,1872
382570,1875,1875,1875
382571,1877,1877,1877
382572,1883,1883,1883
382573,1887,1887,1887
382574,1892,1892,1892
382575,1894,1894,1894
382576,1871,1871,1871
382577,1869,1869,1869
382579,1904,1904,1904
382580,1909,1909,1909
382581,1913,1913,1913
382582,1919,1919,1919
382583,1920,1920,1920
382584,1930,1930,1930
382585,1930,1930,1930
382586,1934,1934,1934
382587,1939,1939,1939
382588,1903,1903,1903
382591,1943,1943,1943
382592,1946,1946,1946
382593,1951,1951,1951
382594,1946,1946,1946
382595,1958,1958,1958
382596,1953,1953,1953
382597,1953,1953,1953
382598,1965,1965,1965
382599,1962,1962,1962
382600,1965,1965,1965
382604,1967,1967,1967
382605,1966,1966,1966
382606,1968,1968,1968
382607,1966,1966,1966
382608,1968,1968,1968
382609,1968,1968,1968
382610,1967,1967,1967
382611,1969,1969,1969
382612,1968,1968,1968
382613,1966,1966,1966
382615,1970,1970,1970
382616,1969,1969,1969
382617,1968,1968,1968
382618,1967,1967,1967
382619,1968,1968,1968
382620,1969,1969,1969
382621,1972,1972,1972
382622,1970,1970,1970
382623,1974,1974,1974
382624,1974,1974,1974
382626,1963,1963,1963
382627,1963,1963,1963
382628,1968,1968,1968
382629,1968,1968,1968
382630,1969,1969,1969
382631,1971,1971,1971
382632,1968,1968,1968
382633,1967,1967,1967
382634,1967,1967,1967
382635,1967,1967,1967
382640,1968,1968,1968
382641,1967,1967,1967
382642,1968,1968,1968
382643,1968,1968,1968
382644,1968,1968,1968
382645,1966,1966,1966
382646,1964,1964,1964
382647,1968,1968,1968
382648,1954,1954,1954
382649,1956,1956,1956
382659,1967,1967,1967
382660,1965,1965,1965
382661,1962,1962,1962
382662,1963,1963,1963
382663,1957,1957,1957
382664,1957,1957,1957
382665,1955,1955,1955
382666,1954,1954,1954
382667,1945,1945,1945
382668,1968,1968,1968
382671,1946,1946,1946
382672,1941,1941,1941
382673,1937,1937,1937
382674,1937,1937,1937
382675,1936,1936,1936
382676,1936,1936,1936
382677,1938,1938,1938
382678,1938,1938,1938
382679,1943,1943,1943
382680,1942,1942,1942
382682,1968,1968,1968
382683,1971,1971,1971
382684,1954,1954,1954
382685,1958,1958,1958
382686,1957,1957,1957
382687,1960,1960,1960
382688,1962,1962,1962
382689,1963,1963,1963
382690,1968,1968,1968
382691,1968,1968,1968
382693,1975,1975,1975
382694,1979,1979,1979
382695,1977,1977,1977
382696,1980,1980,1980
382697,1973,1973,1973
382698,1975,1975,1975
382699,1979,1979,1979
382700,1982,1982,1982
382701,1974,1974,1974
382702,1974,1974,1974
382705,1957,1957,1957
382706,1957,1957,1957
382707,1965,1965,1965
382708,1954,1954,1954
382709,1968,1968,1968
382710,1968,1968,1968
382711,1962,1962,1962
382712,1965,1965,1965
382713,1961,1961,1961
382714,1958,1958,1958
382716,1971,1971,1971
382717,1977,1977,1977
382718,1975,1975,1975
382719,1979,1979,1979
382720,1983,1983,1983
382721,1983,1983,1983
382722,1961,1961,1961
382723,1957,1957,1957
382724,1968,1968,1968
382725,1971,1971,1971
382728,1989,1989,1989
382729,1991,1991,1991
382730,1991,1991,1991
382731,1995,1995,1995
382732,1999,1999,1999
382733,1991,1991,1991
382734,1991,1991,1991
382735,1982,1982,1982
382736,1988,1988,1988
382737,1993,1993,1993
382746,1965,1965,1965
382747,1967,1967,1967
382748,1963,1963,1963
382749,1963,1963,1963
382750,1966,1966,1966
382751,1974,1974,1974
382752,1971,1971,1971
382753,1968,1968,1968
382754,1968,1968,1968
382755,1968,1968,1968
382758,1963,1963,1963
382759,1955,1955,1955
382760,1955,1955,1955
382761,1954,1954,1954
382762,1952,1952,1952
382763,1949,1949,1949
382764,1950,1950,1950
382765,1945,1945,1945
382766,1965,1965,1965
382767,1962,1962,1962
382769,1939,1939,1939
382770,1936,1936,1936
382771,1936,1936,1936
382772,1936,1936,1936
382773,1936,1936,1936
382774,1941,1941,1941
382775,1938,1938,1938
382776,1938,1938,1938
382777,1939,1939,1939
382778,1938,1938,1938
382780,1943,1943,1943
382781,1945,1945,1945
382782,1945,1945,1945
382783,1949,1949,1949
382784,1952,1952,1952
382785,1955,1955,1955
382786,1949,1949,1949
382787,1957,1957,1957
382788,1958,1958,1958
382789,1961,1961,1961
382794,1974,1974,1974
382795,1982,1982,1982
382796,1978,1978,1978
382797,1961,1961,1961
382798,1967,1967,1967
382799,1968,1968,1968
382800,1971,1971,1971
382801,1970,1970,1970
382802,1968,1968,1968
382803,1973,1973,1973
382805,1989,1989,1989
382806,1990,1990,1990
382807,1987,1987,1987
382808,1989,1989,1989
382809,2001,2001,2001
382810,1980,1980,1980
382811,1984,1984,1984
382812,1982,1982,1982
382813,1981,1981,1981
382814,1984,1984,1984
382816,2001,2001,2001
382817,2003,2003,2003
382818,2000,2000,2000
382819,1997,1997,1997
382820,1997,1997,1997
382821,1994,1994,1994
382822,1996,1996,1996
382823,1999,1999,1999
382824,1998,1998,1998
382825,2001,2001,2001
382828,1993,1993,1993
382829,1997,1997,1997
382830,1999,1999,1999
382831,1999,1999,1999
382832,1999,1999,1999
382833,2000,2000,2000
382834,2000,2000,2000
382835,1991,1991,1991
382836,1991,1991,1991
382837,1995,1995,1995
382840,2003,2003,2003
382841,1999,1999,1999
382842,2000,2000,2000
382843,1993,1993,1993
382844,2000,2000,2000
382845,1999,1999,1999
382846,2000,2000,2000
382847,1998,1998,1998
382848,1997,1997,1997
382849,2001,2001,2001
382852,1981,1981,1981
382853,1987,1987,1987
382854,1987,1987,1987
382855,1991,1991,1991
382856,1981,1981,1981
382857,1979,1979,1979
382858,1983,1983,1983
382859,1982,1982,1982
382860,1977,1977,1977
382861,1979,1979,1979
382863,1984,1984,1984
382864,1984,1984,1984
382865,1986,1986,1986
382866,1981,1981,1981
382867,1975,1975,1975
382868,1977,1977,1977
382869,1975,1975,1975
382870,1981,1981,1981
382871,1982,1982,1982
382872,1982,1982,1982
382881,1973,1973,1973
382882,1970,1970,1970
382883,1968,1968,1968
382884,1966,1966,1966
382885,1968,1968,1968
382886,1962,1962,1962
382887,1962,1962,1962
382888,1957,1957,1957
382889,1953,1953,1953
382890,1952,1952,1952
382893,1968,1968,1968
382894,1968,1968,1968
382895,1951,1951,1951
382896,1955,1955,1955
382897,1959,1959,1959
382898,1965,1965,1965
382899,1963,1963,1963
382900,1967,1967,1967
382901,1969,1969,1969
382902,1972,1972,1972
382904,1968,1968,1968
382905,1971,1971,1971
382906,1968,1968,1968
382907,1970,1970,1970
382908,1969,1969,1969
382909,1971,1971,1971
382910,1968,1968,1968
382911,1968,1968,1968
382912,1971,1971,1971
382913,1970,1970,1970
382917,1978,1978,1978
382918,1979,1979,1979
382919,1975,1975,1975
382920,1983,1983,1983
382921,1985,1985,1985
382922,1988,1988,1988
382923,1975,1975,1975
382924,1979,1979,1979
382925,1975,1975,1975
382926,1977,1977,1977
382929,2002,2002,2002
382930,2001,2001,2001
382931,2007,2007,2007
382932,2014,2014,2014
382933,2014,2014,2014
382934,2017,2017,2017
382935,2020,2020,2020
382936,2018,2018,2018
382937,2021,2021,2021
382938,2000,2000,2000
382942,2009,2009,2009
382943,2019,2019,2019
382944,2019,2019,2019
382945,2013,2013,2013
382946,2016,2016,2016
382947,2011,2011,2011
382948,2013,2013,2013
382949,2005,2005,2005
382950,2006,2006,2006
382951,2006,2006,2006
382953,2005,2005,2005
382954,2006,2006,2006
382955,2000,2000,2000
382956,2010,2010,2010
382957,2009,2009,2009
382958,2006,2006,2006
382959,2011,2011,2011
382960,2010,2010,2010
382961,2012,2012,2012
382962,2003,2003,2003
382965,2003,2003,2003
382966,2005,2005,2005
382967,2002,2002,2002
382968,2006,2006,2006
382969,2000,2000,2000
382970,2006,2006,2006
382971,2003,2003,2003
382972,2005,2005,2005
382973,2004,2004,2004
382974,2007,2007,2007
382977,2003,2003,2003
382978,2000,2000,2000
382979,1994,1994,1994
382980,1999,1999,1999
382981,1996,1996,1996
382982,1990,1990,1990
382983,1989,1989,1989
382984,2003,2003,2003
382985,2001,2001,2001
382986,2000,2000,2000
382988,1983,1983,1983
382989,1983,1983,1983
382990,1984,1984,1984
382991,1989,1989,1989
382992,1981,1981,1981
382993,1982,1982,1982
382994,1986,1986,1986
382995,1984,1984,1984
382996,1984,1984,1984
382997,1985,1985,1985
382999,1984,1984,1984
383000,1981,1981,1981
383001,1983,1983,1983
383002,1985,1985,1985
383003,1987,1987,1987
383004,1985,1985,1985
383005,1986,1986,1986
383006,1989,1989,1989
383007,1986,1986,1986
383008,1996,1996,1996
383012,2025,2025,2025
383013,1999,1999,1999
383014,1999,1999,1999
383015,2000,2000,2000
383016,2000,2000,2000
383017,2002,2002,2002
383018,2006,2006,2006
383019,2010,2010,2010
383020,2015,2015,2015
383021,2023,2023,2023
383025,2021,2021,2021
383026,2018,2018,2018
383027,2015,2015,2015
383028,2016,2016,2016
383029,2009,2009,2009
383030,2009,2009,2009
383031,2032,2032,2032
383032,2026,2026,2026
383033,2027,2027,2027
383034,2023,2023,2023
383036,2005,2005,2005
383037,2005,2005,2005
383038,2000,2000,2000
383039,1997,1997,1997
383040,1998,1998,1998
383041,1999,1999,1999
383042,2016,2016,2016
383043,2007,2007,2007
383044,2003,2003,2003
383045,2004,2004,2004
383051,1975,1975,1975
383052,1975,1975,1975
383053,1971,1971,1971
383054,1973,1973,1973
383055,1969,1969,1969
383056,1974,1974,1974
383057,1974,1974,1974
383058,1978,1978,1978
383059,1979,1979,1979
383060,1984,1984,1984
383062,1974,1974,1974
383063,1979,1979,1979
383064,1984,1984,1984
383065,1984,1984,1984
383066,1981,1981,1981
383067,1980,1980,1980
383068,1981,1981,1981
383069,1981,1981,1981
383070,1983,1983,1983
383071,1981,1981,1981
383076,1985,1985,1985
383077,1983,1983,1983
383078,1983,1983,1983
383079,1979,1979,1979
383080,1979,1979,1979
383081,1978,1978,1978
383082,1978,1978,1978
383083,1982,1982,1982
383084,1978,1978,1978
383085,1976,1976,1976
383087,1973,1973,1973
383088,1972,1972,1972
383089,1975,1975,1975
383090,1979,1979,1979
383091,1978,1978,1978
383092,1979,1979,1979
383093,1974,1974,1974
383094,1974,1974,1974
383095,1971,1971,1971
383096,1974,1974,1974
383104,1947,1947,1947
383105,1938,1938,1938
383106,1941,1941,1941
383107,1936,1936,1936
383108,1966,1966,1966
383109,1959,1959,1959
383110,1958,1958,1958
383111,1955,1955,1955
383112,1951,1951,1951
383113,1947,1947,1947
383116,1936,1936,1936
383117,1936,1936,1936
383118,1934,1934,1934
383119,1936,1936,1936
383120,1935,1935,1935
383121,1935,1935,1935
383122,1931,1931,1931
383123,1936,1936,1936
383124,1937,1937,1937
383125,1936,1936,1936
383127,1926,1926,1926
383128,1923,1923,1923
383129,1923,1923,1923
383130,1924,1924,1924
383131,1923,1923,1923
383132,1925,1925,1925
383133,1932,1932,1932
383134,1934,1934,1934
383135,1930,1930,1930
383136,1926,1926,1926
383138,1933,1933,1933
383139,1936,1936,1936
383140,1936,1936,1936
383141,1939,1939,1939
383142,1936,1936,1936
383143,1941,1941,1941
383144,1939,1939,1939
383145,1943,1943,1943
383146,1935,1935,1935
383147,1935,1935,1935
383150,1949,1949,1949
383151,1946,1946,1946
383152,1949,1949,1949
383153,1951,1951,1951
383154,1952,1952,1952
383155,1957,1957,1957
383156,1955,1955,1955
383157,1956,1956,1956
383158,1958,1958,1958
383159,1937,1937,1937
383161,1961,1961,1961
383162,1953,1953,1953
383163,1962,1962,1962
383164,1961,1961,1961
383165,1959,1959,1959
383166,1958,1958,1958
383167,1954,1954,1954
383168,1955,1955,1955
383169,1952,1952,1952
383170,1953,1953,1953
383178,1982,1982,1982
383179,1981,1981,1981
383180,1981,1981,1981
383181,1979,1979,1979
383182,1982,1982,1982
383183,1981,1981,1981
383184,1984,1984,1984
383185,1972,1972,1972
383186,1968,1968,1968
383187,1979,1979,1979
383211,2021,2021,2021
383212,2016,2016,2016
383213,2016,2016,2016
383214,2018,2018,2018
383215,2017,2017,2017
383216,2021,2021,2021
383217,2022,2022,2022
383218,2025,2025,2025
383219,2025,2025,2025
383220,2027,2027,2027
383222,2032,2032,2032
383223,2032,2032,2032
383224,2033,2033,2033
383225,2035,2035,2035
383226,2037,2037,2037
383227,2035,2035,2035
383228,2034,2034,2034
383229,2034,2034,2034
383230,2031,2031,2031
383231,2031,2031,2031
383234,2025,2025,2025
383235,2025,2025,2025
383236,2032,2032,2032
383237,2032,2032,2032
383238,2028,2028,2028
383239,2032,2032,2032
383240,2033,2033,2033
383241,2034,2034,2034
383242,2025,2025,2025
383243,2030,2030,2030
383247,2019,2019,2019
383248,2017,2017,2017
383249,2012,2012,2012
383250,2016,2016,2016
383251,2018,2018,2018
383252,2019,2019,2019
383253,2021,2021,2021
383254,2022,2022,2022
383255,2020,2020,2020
383256,2016,2016,2016
383258,2026,2026,2026
383259,2027,2027,2027
383260,2025,2025,2025
383261,2027,2027,2027
383262,2018,2018,2018
383263,2021,2021,2021
383264,2018,2018,2018
383265,2017,2017,2017
383266,2026,2026,2026
383267,2025,2025,2025
383269,2018,2018,2018
383270,2015,2015,2015
383271,2016,2016,2016
383272,2019,2019,2019
383273,2018,2018,2018
383274,2015,2015,2015
383275,2021,2021,2021
383276,2016,2016,2016
383277,2016,2016,2016
383278,2019,2019,2019
383280,2016,2016,2016
383281,2015,2015,2015
383282,2018,2018,2018
383283,2016,2016,2016
383284,2011,2011,2011
383285,2011,2011,2011
383286,2011,2011,2011
383287,2013,2013,2013
383288,2005,2005,2005
383289,2003,2003,2003
383292,2003,2003,2003
383293,2000,2000,2000
383294,2000,2000,2000
383295,1997,1997,1997
383296,1993,1993,1993
383297,2000,2000,2000
383298,2000,2000,2000
383299,2000,2000,2000
383300,2000,2000,2000
383301,2000,2000,2000
383303,1994,1994,1994
383304,1995,1995,1995
383305,1989,1989,1989
383306,2000,2000,2000
383307,2000,2000,2000
383308,2002,2002,2002
383309,2001,2001,2001
383310,2000,2000,2000
383311,1999,1999,1999
383312,1998,1998,1998
383321,1971,1971,1971
383322,1971,1971,1971
383323,1978,1978,1978
383324,1974,1974,1974
383325,1969,1969,1969
383326,1969,1969,1969
383327,1968,1968,1968
383328,1963,1963,1963
383329,1963,1963,1963
383330,1965,1965,1965
383332,1932,1932,1932
383333,1932,1932,1932
383334,1955,1955,1955
383335,1948,1948,1948
383336,1948,1948,1948
383337,1942,1942,1942
383338,1945,1945,1945
383339,1938,1938,1938
383340,1936,1936,1936
383341,1936,1936,1936
383343,1896,1896,1896
383344,1895,1895,1895
383345,1889,1889,1889
383346,1919,1919,1919
383347,1921,1921,1921
383348,1916,1916,1916
383349,1904,1904,1904
383350,1911,1911,1911
383351,1901,1901,1901
383352,1901,1901,1901
383357,1879,1879,1879
383358,1876,1876,1876
383359,1872,1872,1872
383360,1872,1872,1872
383361,1874,1874,1874
383362,1870,1870,1870
383363,1879,1879,1879
383364,1882,1882,1882
383365,1879,1879,1879
383366,1877,1877,1877
383369,1873,1873,1873
383370,1876,1876,1876
383371,1878,1878,1878
383372,1882,1882,1882
383373,1885,1885,1885
383374,1881,1881,1881
383375,1881,1881,1881
383376,1878,1878,1878
383377,1872,1872,1872
383378,1872,1872,1872
383381,1886,1886,1886
383382,1873,1873,1873
383383,1897,1897,1897
383384,1893,1893,1893
383385,1891,1891,1891
383386,1892,1892,1892
383387,1893,1893,1893
383388,1890,1890,1890
383389,1890,1890,1890
383390,1877,1877,1877
383398,1858,1858,1858
383399,1856,1856,1856
383400,1854,1854,1854
383401,1850,1850,1850
383402,1851,1851,1851
383403,1853,1853,1853
383404,1843,1843,1843
383405,1863,1863,1863
383406,1860,1860,1860
383407,1867,1867,1867
383418,1841,1841,1841
383419,1841,1841,1841
383420,1840,1840,1840
383421,1840,1840,1840
383422,1840,1840,1840
383423,1840,1840,1840
383424,1840,1840,1840
383425,1841,1841,1841
383426,1842,1842,1842
383427,1809,1809,1809
383429,1840,1840,1840
383430,1843,1843,1843
383431,1843,1843,1843
383432,1849,1849,1849
383433,1844,1844,1844
383434,1845,1845,1845
383435,1847,1847,1847
383436,1850,1850,1850
383437,1851,1851,1851
383438,1842,1842,1842
383440,1855,1855,1855
383441,1861,1861,1861
383442,1851,1851,1851
383443,1859,1859,1859
383444,1864,1864,1864
383445,1862,1862,1862
383446,1867,1867,1867
383447,1870,1870,1870
383448,1874,1874,1874
383449,1874,1874,1874
383454,1886,1886,1886
383455,1889,1889,1889
383456,1890,1890,1890
383457,1883,1883,1883
383458,1890,1890,1890
383459,1889,1889,1889
383460,1887,1887,1887
383461,1895,1895,1895
383462,1894,1894,1894
383463,1888,1888,1888
383468,1890,1890,1890
383469,1893,1893,1893
383470,1891,1891,1891
383471,1898,1898,1898
383472,1899,1899,1899
383473,1901,1901,1901
383474,1899,1899,1899
383475,1896,1896,1896
383476,1890,1890,1890
383477,1888,1888,1888
383479,1894,1894,1894
383480,1895,1895,1895
383481,1890,1890,1890
383482,1887,1887,1887
383483,1893,1893,1893
383484,1881,1881,1881
383485,1887,1887,1887
383486,1879,1879,1879
383487,1882,1882,1882
383488,1894,1894,1894
383490,1881,1881,1881
383491,1882,1882,1882
383492,1885,1885,1885
383493,1881,1881,1881
383494,1879,1879,1879
383495,1878,1878,1878
383496,1882,1882,1882
383497,1883,1883,1883
383498,1881,1881,1881
383499,1883,1883,1883
383501,1857,1857,1857
383502,1877,1877,1877
383503,1877,1877,1877
383504,1875,1875,1875
383505,1872,1872,1872
383506,1869,1869,1869
383507,1867,1867,1867
383508,1862,1862,1862
383509,1859,1859,1859
383510,1856,1856,1856
383513,1875,1875,1875
383514,1877,1877,1877
383515,1885,1885,1885
383516,1860,1860,1860
383517,1860,1860,1860
383518,1867,1867,1867
383519,1862,1862,1862
383520,1869,1869,1869
383521,1869,1869,1869
383522,1873,1873,1873
383525,1871,1871,1871
383526,1872,1872,1872
383527,1872,1872,1872
383528,1874,1874,1874
383529,1873,1873,1873
383530,1872,1872,1872
383531,1875,1875,1875
383532,1872,1872,1872
383533,1871,1871,1871
383534,1872,1872,1872
383536,1874,1874,1874
383537,1873,1873,1873
383538,1875,1875,1875
383539,1872,1872,1872
383540,1870,1870,1870
383541,1872,1872,1872
383542,1879,1879,1879
383543,1875,1875,1875
383544,1872,1872,1872
383545,1872,1872,1872
383547,1870,1870,1870
383548,1862,1862,1862
383549,1860,1860,1860
383550,1869,1869,1869
383551,1870,1870,1870
383552,1870,1870,1870
383553,1869,1869,1869
383554,1867,1867,1867
383555,1865,1865,1865
383556,1869,1869,1869
383559,1872,1872,1872
383560,1872,1872,1872
383561,1869,1869,1869
383562,1870,1870,1870
383563,1870,1870,1870
383564,1867,1867,1867
383565,1870,1870,1870
383566,1867,1867,1867
383567,1870,1870,1870
383568,1870,1870,1870
383571,1871,1871,1871
383572,1870,1870,1870
383573,1868,1868,1868
383574,1877,1877,1877
383575,1872,1872,1872
383576,1869,1869,1869
383577,1871,1871,1871
383578,1867,1867,1867
383579,1871,1871,1871
383580,1873,1873,1873
383582,1861,1861,1861
383583,1877,1877,1877
383584,1872,1872,1872
383585,1872,1872,1872
383586,1872,1872,1872
383587,1872,1872,1872
383588,1872,1872,1872
383589,1872,1872,1872
383590,1872,1872,1872
383591,1875,1875,1875
383599,1872,1872,1872
383600,1866,1866,1866
383601,1867,1867,1867
383602,1861,1861,1861
383603,1866,1866,1866
383604,1854,1854,1854
383605,1849,1849,1849
383606,1851,1851,1851
383607,1872,1872,1872
383608,1872,1872,1872
383612,1851,1851,1851
383613,1849,1849,1849
383614,1850,1850,1850
383615,1853,1853,1853
383616,1841,1841,1841
383617,1853,1853,1853
383618,1854,1854,1854
383619,1856,1856,1856
383620,1855,1855,1855
383621,1856,1856,1856
383623,1825,1825,1825
383624,1813,1813,1813
383625,1814,1814,1814
383626,1822,1822,1822
383627,1839,1839,1839
383628,1840,1840,1840
383629,1856,1856,1856
383630,1827,1827,1827
383631,1825,1825,1825
383632,1821,1821,1821
383634,1823,1823,1823
383635,1823,1823,1823
383636,1811,1811,1811
383637,1821,1821,1821
383638,1819,1819,1819
383639,1823,1823,1823
383640,1828,1828,1828
383641,1825,1825,1825
383642,1822,1822,1822
383643,1823,1823,1823
383645,1815,1815,1815
383646,1813,1813,1813
383647,1811,1811,1811
383648,1815,1815,1815
383649,1815,1815,1815
383650,1819,1819,1819
383651,1822,1822,1822
383652,1823,1823,1823
383653,1814,1814,1814
383654,1814,1814,1814
383662,1804,1804,1804
383663,1817,1817,1817
383664,1814,1814,1814
383665,1815,1815,1815
383666,1813,1813,1813
383667,1809,1809,1809
383668,1808,1808,1808
383669,1804,1804,1804
383670,1802,1802,1802
383671,1803,1803,1803
383674,1807,1807,1807
383675,1806,1806,1806
383676,1808,1808,1808
383677,1808,1808,1808
383678,1807,1807,1807
383679,1801,1801,1801
383680,1807,1807,1807
383681,1808,1808,1808
383682,1807,1807,1807
383683,1805,1805,1805
383685,1808,1808,1808
383686,1807,1807,1807
383687,1808,1808,1808
383688,1813,1813,1813
383689,1811,1811,1811
383690,1804,1804,1804
383691,1804,1804,1804
383692,1802,1802,1802
383693,1803,1803,1803
383694,1806,1806,1806
383696,1830,1830,1830
383697,1825,1825,1825
383698,1824,1824,1824
383699,1827,1827,1827
383700,1825,1825,1825
383701,1822,1822,1822
383702,1819,1819,1819
383703,1822,1822,1822
383704,1823,1823,1823
383705,1826,1826,1826
383708,1826,1826,1826
383709,1825,1825,1825
383710,1824,1824,1824
383711,1829,1829,1829
383712,1840,1840,1840
383713,1841,1841,1841
383714,1840,1840,1840
383715,1822,1822,1822
383716,1826,1826,1826
383717,1825,1825,1825
383719,1854,1854,1854
383720,1860,1860,1860
383721,1862,1862,1862
383722,1865,1865,1865
383723,1866,1866,1866
383724,1865,1865,1865
383725,1864,1864,1864
383726,1867,1867,1867
383727,1867,1867,1867
383728,1851,1851,1851
383730,1867,1867,1867
383731,1868,1868,1868
383732,1872,1872,1872
383733,1872,1872,1872
383734,1872,1872,1872
383735,1871,1871,1871
383736,1871,1871,1871
383737,1872,1872,1872
383738,1872,1872,1872
383739,1872,1872,1872
383750,1876,1876,1876
383751,1879,1879,1879
383752,1883,1883,1883
383753,1882,1882,1882
383754,1886,1886,1886
383755,1887,1887,1887
383756,1889,1889,1889
383757,1891,1891,1891
383758,1893,1893,1893
383759,1874,1874,1874
383763,1909,1909,1909
383764,1911,1911,1911
383765,1898,1898,1898
383766,1903,1903,1903
383767,1903,1903,1903
383768,1904,1904,1904
383769,1904,1904,1904
383770,1904,1904,1904
383771,1904,1904,1904
383772,1910,1910,1910
383774,1939,1939,1939
383775,1940,1940,1940
383776,1941,1941,1941
383777,1950,1950,1950
383778,1922,1922,1922
383779,1923,1923,1923
383780,1926,1926,1926
383781,1933,1933,1933
383782,1936,1936,1936
383783,1938,1938,1938
383785,1951,1951,1951
383786,1962,1962,1962
383787,1958,1958,1958
383788,1963,1963,1963
383789,1966,1966,1966
383790,1940,1940,1940
383791,1943,1943,1943
383792,1949,1949,1949
383793,1950,1950,1950
383794,1947,1947,1947
383803,1967,1967,1967
383804,1963,1963,1963
383805,1981,1981,1981
383806,1979,1979,1979
383807,1982,1982,1982
383808,1974,1974,1974
383809,1971,1971,1971
383810,1970,1970,1970
383811,1968,1968,1968
383812,1969,1969,1969
383814,1968,1968,1968
383815,1967,1967,1967
383816,1965,1965,1965
383817,1963,1963,1963
383818,1963,1963,1963
383819,1965,1965,1965
383820,1966,1966,1966
383821,1968,1968,1968
383822,1968,1968,1968
383823,1967,1967,1967
383825,1957,1957,1957
383826,1963,1963,1963
383827,1959,1959,1959
383828,1960,1960,1960
383829,1966,1966,1966
383830,1966,1966,1966
383831,1966,1966,1966
383832,1961,1961,1961
383833,1966,1966,1966
383834,1959,1959,1959
383836,1981,1981,1981
383837,1984,1984,1984
383838,1987,1987,1987
383839,1990,1990,1990
383840,1991,1991,1991
383841,1993,1993,1993
383842,1966,1966,1966
383843,1971,1971,1971
383844,1978,1978,1978
383845,1979,1979,1979
383848,2003,2003,2003
383849,2009,2009,2009
383850,2008,2008,2008
383851,2015,2015,2015
383852,2019,2019,2019
383853,2022,2022,2022
383854,2023,2023,2023
383855,2000,2000,2000
383856,2002,2002,2002
383857,2005,2005,2005
383861,2038,2038,2038
383862,2028,2028,2028
383863,2032,2032,2032
383864,2032,2032,2032
383865,2032,2032,2032
383866,2026,2026,2026
383867,2031,2031,2031
383868,2025,2025,2025
383869,2026,2026,2026
383870,2026,2026,2026
383877,2009,2009,2009
383878,2010,2010,2010
383879,2007,2007,2007
383880,2002,2002,2002
383881,2001,2001,2001
383882,2000,2000,2000
383883,2006,2006,2006
383884,2011,2011,2011
383885,2008,2008,2008
383886,2012,2012,2012
383888,1985,1985,1985
383889,1982,1982,1982
383890,1971,1971,1971
383891,1974,1974,1974
383892,1968,1968,1968
383893,1969,1969,1969
383894,1973,1973,1973
383895,1970,1970,1970
383896,1987,1987,1987
383897,1985,1985,1985
383899,1967,1967,1967
383900,1965,1965,1965
383901,1965,1965,1965
383902,1964,1964,1964
383903,1961,1961,1961
383904,1961,1961,1961
383905,1962,1962,1962
383906,1963,1963,1963
383907,1962,1962,1962
383908,1970,1970,1970
383910,1966,1966,1966
383911,1966,1966,1966
383912,1962,1962,1962
383913,1968,1968,1968
383914,1961,1961,1961
383915,1964,1964,1964
383916,1965,1965,1965
383917,1965,1965,1965
383918,1966,1966,1966
383919,1965,1965,1965
383934,1999,1999,1999
383935,2000,2000,2000
383936,1998,1998,1998
383937,1970,1970,1970
383938,1978,1978,1978
383939,1980,1980,1980
383940,1987,1987,1987
383941,1989,1989,1989
383942,1991,1991,1991
383943,1994,1994,1994
383945,1989,1989,1989
383946,1985,1985,1985
383947,1988,1988,1988
383948,1991,1991,1991
383949,1991,1991,1991
383950,1993,1993,1993
383951,1991,1991,1991
383952,1995,1995,1995
383953,1986,1986,1986
383954,1985,1985,1985
383956,1999,1999,1999
383957,1994,1994,1994
383958,1997,1997,1997
383959,1990,1990,1990
383960,1996,1996,1996
383961,1995,1995,1995
383962,1994,1994,1994
383963,1999,1999,1999
383964,1995,1995,1995
383965,2000,2000,2000
383968,1981,1981,1981
383969,1982,1982,1982
383970,1977,1977,1977
383971,1975,1975,1975
383972,1974,1974,1974
383973,1973,1973,1973
383974,1975,1975,1975
383975,1991,1991,1991
383976,1984,1984,1984
383977,1990,1990,1990
383981,1973,1973,1973
383982,1981,1981,1981
383983,1979,1979,1979
383984,1983,1983,1983
383985,1978,1978,1978
383986,1968,1968,1968
383987,1968,1968,1968
383988,1974,1974,1974
383989,1968,1968,1968
383990,1971,1971,1971
383994,1936,1936,1936
383995,1931,1931,1931
383996,1929,1929,1929
383997,1923,1923,1923
383998,1948,1948,1948
383999,1947,1947,1947
384000,1941,1941,1941
384001,1937,1937,1937
384002,1938,1938,1938
384003,1935,1935,1935
384006,1904,1904,1904
384007,1905,1905,1905
384008,1904,1904,1904
384009,1904,1904,1904
384010,1904,1904,1904
384011,1899,1899,1899
384012,1918,1918,1918
384013,1915,1915,1915
384014,1910,1910,1910
384015,1905,1905,1905
384017,1895,1895,1895
384018,1894,1894,1894
384019,1887,1887,1887
384020,1891,1891,1891
384021,1882,1882,1882
384022,1882,1882,1882
384023,1875,1875,1875
384024,1897,1897,1897
384025,1901,1901,1901
384026,1898,1898,1898
384028,1868,1868,1868
384029,1866,1866,1866
384030,1867,1867,1867
384031,1863,1863,1863
384032,1866,1866,1866
384033,1867,1867,1867
384034,1862,1862,1862
384035,1869,1869,1869
384036,1872,1872,1872
384037,1873,1873,1873
384041,1882,1882,1882
384042,1872,1872,1872
384043,1872,1872,1872
384044,1879,1879,1879
384045,1875,1875,1875
384046,1872,1872,1872
384047,1873,1873,1873
384048,1872,1872,1872
384049,1873,1873,1873
384050,1874,1874,1874
384053,1887,1887,1887
384054,1889,1889,1889
384055,1887,1887,1887
384056,1885,1885,1885
384057,1889,1889,1889
384058,1879,1879,1879
384059,1887,1887,1887
384060,1888,1888,1888
384061,1889,1889,1889
384062,1890,1890,1890
384070,1883,1883,1883
384071,1884,1884,1884
384072,1884,1884,1884
384073,1885,1885,1885
384074,1892,1892,1892
384075,1895,1895,1895
384076,1894,1894,1894
384077,1900,1900,1900
384078,1901,1901,1901
384079,1882,1882,1882
384082,1887,1887,1887
384083,1887,1887,1887
384084,1903,1903,1903
384085,1903,1903,1903
384086,1898,1898,1898
384087,1895,1895,1895
384088,1897,1897,1897
384089,1894,1894,1894
384090,1890,1890,1890
384091,1891,1891,1891
384185,1901,1901,1901
384186,1904,1904,1904
384187,1904,1904,1904
384188,1904,1904,1904
384189,1893,1893,1893
384190,1897,1897,1897
384191,1899,1899,1899
384192,1894,1894,1894
384193,1898,1898,1898
384194,1902,1902,1902
384196,1926,1926,1926
384197,1929,1929,1929
384198,1930,1930,1930
384199,1936,1936,1936
384200,1931,1931,1931
384201,1930,1930,1930
384202,1911,1911,1911
384203,1917,1917,1917
384204,1920,1920,1920
384205,1921,1921,1921
384207,1920,1920,1920
384208,1923,1923,1923
384209,1924,1924,1924
384210,1903,1903,1903
384211,1927,1927,1927
384212,1921,1921,1921
384213,1926,1926,1926
384214,1926,1926,1926
384215,1924,1924,1924
384216,1924,1924,1924
384218,1917,1917,1917
384219,1918,1918,1918
384220,1910,1910,1910
384221,1907,1907,1907
384222,1907,1907,1907
384223,1903,1903,1903
384224,1903,1903,1903
384225,1900,1900,1900
384226,1922,1922,1922
384227,1918,1918,1918
384230,1888,1888,1888
384231,1887,1887,1887
384232,1878,1878,1878
384233,1878,1878,1878
384234,1878,1878,1878
384235,1884,1884,1884
384236,1877,1877,1877
384237,1875,1875,1875
384238,1875,1875,1875
384239,1888,1888,1888
384242,1869,1869,1869
384243,1875,1875,1875
384244,1879,1879,1879
384245,1878,1878,1878
384246,1882,1882,1882
384247,1875,1875,1875
384248,1874,1874,1874
384249,1874,1874,1874
384250,1872,1872,1872
384251,1871,1871,1871
384261,1840,1840,1840
384262,1840,1840,1840
384263,1847,1847,1847
384264,1846,1846,1846
384265,1842,1842,1842
384266,1840,1840,1840
384267,1839,1839,1839
384268,1839,1839,1839
384269,1838,1838,1838
384270,1839,1839,1839
384274,1856,1856,1856
384275,1858,1858,1858
384276,1860,1860,1860
384277,1857,1857,1857
384278,1844,1844,1844
384279,1847,1847,1847
384280,1855,1855,1855
384281,1858,1858,1858
384282,1856,1856,1856
384283,1855,1855,1855
384285,1846,1846,1846
384286,1845,1845,1845
384287,1847,1847,1847
384288,1847,1847,1847
384289,1853,1853,1853
384290,1850,1850,1850
384291,1850,1850,1850
384292,1845,1845,1845
384293,1842,1842,1842
384294,1845,1845,1845
384296,1868,1868,1868
384297,1871,1871,1871
384298,1870,1870,1870
384299,1872,1872,1872
384300,1871,1871,1871
384301,1872,1872,1872
384302,1840,1840,1840
384303,1858,1858,1858
384304,1862,1862,1862
384305,1865,1865,1865
384308,1871,1871,1871
384309,1872,1872,1872
384310,1877,1877,1877
384311,1872,1872,1872
384312,1872,1872,1872
384313,1874,1874,1874
384314,1877,1877,1877
384315,1874,1874,1874
384316,1872,1872,1872
384317,1869,1869,1869
384320,1883,1883,1883
384321,1886,1886,1886
384322,1883,1883,1883
384323,1883,1883,1883
384324,1877,1877,1877
384325,1877,1877,1877
384326,1874,1874,1874
384327,1875,1875,1875
384328,1874,1874,1874
384329,1872,1872,1872
384338,1873,1873,1873
384339,1874,1874,1874
384340,1875,1875,1875
384341,1872,1872,1872
384342,1863,1863,1863
384343,1871,1871,1871
384344,1872,1872,1872
384345,1871,1871,1871
384346,1872,1872,1872
384347,1872,1872,1872
384350,1874,1874,1874
384351,1872,1872,1872
384352,1872,1872,1872
384353,1872,1872,1872
384354,1863,1863,1863
384355,1872,1872,1872
384356,1877,1877,1877
384357,1878,1878,1878
384358,1882,1882,1882
384359,1882,1882,1882
384361,1872,1872,1872
384362,1873,1873,1873
384363,1888,1888,1888
384364,1882,1882,1882
384365,1887,1887,1887
384366,1883,1883,1883
384367,1886,1886,1886
384368,1882,1882,1882
384369,1904,1904,1904
384370,1878,1878,1878
384373,1855,1855,1855
384374,1851,1851,1851
384375,1872,1872,1872
384376,1863,1863,1863
384377,1863,1863,1863
384378,1861,1861,1861
384379,1858,1858,1858
384380,1854,1854,1854
384381,1858,1858,1858
384382,1853,1853,1853
384385,1845,1845,1845
384386,1844,1844,1844
384387,1846,1846,1846
384388,1847,1847,1847
384389,1845,1845,1845
384390,1845,1845,1845
384391,1846,1846,1846
384392,1845,1845,1845
384393,1843,1843,1843
384394,1845,1845,1845
384396,1853,1853,1853
384397,1852,1852,1852
384398,1849,1849,1849
384399,1849,1849,1849
384400,1849,1849,1849
384401,1846,1846,1846
384402,1817,1817,1817
384403,1841,1841,1841
384404,1842,1842,1842
384405,1848,1848,1848
384407,1833,1833,1833
384408,1830,1830,1830
384409,1833,1833,1833
384410,1830,1830,1830
384411,1828,1828,1828
384412,1830,1830,1830
384413,1827,1827,1827
384414,1834,1834,1834
384415,1839,1839,1839
384416,1836,1836,1836
384426,1818,1818,1818
384427,1820,1820,1820
384428,1821,1821,1821
384429,1826,1826,1826
384430,1830,1830,1830
384431,1811,1811,1811
384432,1813,1813,1813
384433,1812,1812,1812
384434,1819,1819,1819
384435,1815,1815,1815
384437,1836,1836,1836
384438,1840,1840,1840
384439,1837,1837,1837
384440,1833,1833,1833
384441,1831,1831,1831
384442,1825,1825,1825
384443,1824,1824,1824
384444,1841,1841,1841
384445,1839,1839,1839
384446,1840,1840,1840
384448,1821,1821,1821
384449,1824,1824,1824
384450,1824,1824,1824
384451,1830,1830,1830
384452,1833,1833,1833
384453,1837,1837,1837
384454,1840,1840,1840
384455,1841,1841,1841
384456,1823,1823,1823
384457,1821,1821,1821
384459,1845,1845,1845
384460,1847,1847,1847
384461,1847,1847,1847
384462,1851,1851,1851
384463,1849,1849,1849
384464,1847,1847,1847
384465,1847,1847,1847
384466,1847,1847,1847
384467,1853,1853,1853
384468,1843,1843,1843
384471,1856,1856,1856
384472,1854,1854,1854
384473,1853,1853,1853
384474,1855,1855,1855
384475,1856,1856,1856
384476,1857,1857,1857
384477,1859,1859,1859
384478,1859,1859,1859
384479,1863,1863,1863
384480,1867,1867,1867
384485,1866,1866,1866
384486,1857,1857,1857
384487,1871,1871,1871
384488,1868,1868,1868
384489,1871,1871,1871
384490,1872,1872,1872
384491,1872,1872,1872
384492,1869,1869,1869
384493,1866,1866,1866
384494,1870,1870,1870
384496,1885,1885,1885
384497,1885,1885,1885
384498,1883,1883,1883
384499,1883,1883,1883
384500,1882,1882,1882
384501,1875,1875,1875
384502,1872,1872,1872
384503,1879,1879,1879
384504,1886,1886,1886
384505,1880,1880,1880
384507,1856,1856,1856
384508,1865,1865,1865
384509,1872,1872,1872
384510,1866,1866,1866
384511,1872,1872,1872
384512,1872,1872,1872
384513,1873,1873,1873
384514,1871,1871,1871
384515,1871,1871,1871
384516,1867,1867,1867
384520,1882,1882,1882
384521,1881,1881,1881
384522,1885,1885,1885
384523,1894,1894,1894
384524,1894,1894,1894
384525,1898,1898,1898
384526,1903,1903,1903
384527,1902,1902,1902
384528,1904,1904,1904
384529,1904,1904,1904
384532,1937,1937,1937
384533,1937,1937,1937
384534,1911,1911,1911
384535,1919,1919,1919
384536,1920,1920,1920
384537,1926,1926,1926
384538,1931,1931,1931
384539,1934,1934,1934
384540,1936,1936,1936
384541,1937,1937,1937
384544,1940,1940,1940
384545,1941,1941,1941
384546,1948,1948,1948
384547,1951,1951,1951
384548,1936,1936,1936
384549,1934,1934,1934
384550,1935,1935,1935
384551,1934,1934,1934
384552,1935,1935,1935
384553,1937,1937,1937
384561,1943,1943,1943
384562,1936,1936,1936
384563,1925,1925,1925
384564,1920,1920,1920
384565,1917,1917,1917
384566,1914,1914,1914
384567,1904,1904,1904
384568,1901,1901,1901
384569,1902,1902,1902
384570,1899,1899,1899
384575,1924,1924,1924
384576,1920,1920,1920
384577,1923,1923,1923
384578,1903,1903,1903
384579,1904,1904,1904
384580,1907,1907,1907
384581,1916,1916,1916
384582,1915,1915,1915
384583,1915,1915,1915
384584,1919,1919,1919
384587,1942,1942,1942
384588,1941,1941,1941
384589,1945,1945,1945
384590,1941,1941,1941
384591,1946,1946,1946
384592,1948,1948,1948
384593,1954,1954,1954
384594,1935,1935,1935
384595,1936,1936,1936
384596,1936,1936,1936
384598,1964,1964,1964
384599,1961,1961,1961
384600,1959,1959,1959
384601,1959,1959,1959
384602,1959,1959,1959
384603,1958,1958,1958
384604,1958,1958,1958
384605,1961,1961,1961
384606,1955,1955,1955
384607,1958,1958,1958
384610,1957,1957,1957
384611,1958,1958,1958
384612,1955,1955,1955
384613,1957,1957,1957
384614,1953,1953,1953
384615,1953,1953,1953
384616,1952,1952,1952
384617,1950,1950,1950
384618,1949,1949,1949
384619,1957,1957,1957
384622,1930,1930,1930
384623,1934,1934,1934
384624,1942,1942,1942
384625,1936,1936,1936
384626,1939,1939,1939
384627,1937,1937,1937
384628,1934,1934,1934
384629,1936,1936,1936
384630,1935,1935,1935
384631,1934,1934,1934
384633,1930,1930,1930
384634,1931,1931,1931
384635,1931,1931,1931
384636,1934,1934,1934
384637,1933,1933,1933
384638,1933,1933,1933
384639,1934,1934,1934
384640,1933,1933,1933
384641,1935,1935,1935
384642,1934,1934,1934
384644,1938,1938,1938
384645,1939,1939,1939
384646,1940,1940,1940
384647,1938,1938,1938
384648,1933,1933,1933
384649,1931,1931,1931
384650,1936,1936,1936
384651,1935,1935,1935
384652,1936,1936,1936
384653,1936,1936,1936
384655,1943,1943,1943
384656,1943,1943,1943
384657,1943,1943,1943
384658,1943,1943,1943
384659,1946,1946,1946
384660,1942,1942,1942
384661,1946,1946,1946
384662,1942,1942,1942
384663,1947,1947,1947
384664,1943,1943,1943
384669,1935,1935,1935
384670,1933,1933,1933
384671,1933,1933,1933
384672,1938,1938,1938
384673,1940,1940,1940
384674,1945,1945,1945
384675,1949,1949,1949
384676,1952,1952,1952
384677,1934,1934,1934
384678,1929,1929,1929
384682,1919,1919,1919
384683,1939,1939,1939
384684,1936,1936,1936
384685,1936,1936,1936
384686,1935,1935,1935
384687,1924,1924,1924
384688,1920,1920,1920
384689,1922,1922,1922
384690,1922,1922,1922
384691,1921,1921,1921
384700,1905,1905,1905
384701,1907,1907,1907
384702,1904,1904,1904
384703,1904,1904,1904
384704,1899,1899,1899
384705,1895,1895,1895
384706,1891,1891,1891
384707,1893,1893,1893
384708,1891,1891,1891
384709,1904,1904,1904
384712,1893,1893,1893
384713,1897,1897,1897
384714,1883,1883,1883
384715,1883,1883,1883
384716,1887,1887,1887
384717,1890,1890,1890
384718,1889,1889,1889
384719,1894,1894,1894
384720,1891,1891,1891
384721,1897,1897,1897
384723,1904,1904,1904
384724,1904,1904,1904
384725,1905,1905,1905
384726,1898,1898,1898
384727,1899,1899,1899
384728,1899,1899,1899
384729,1900,1900,1900
384730,1903,1903,1903
384731,1904,1904,1904
384732,1901,1901,1901
384802,1838,1838,1838
384803,1840,1840,1840
384804,1841,1841,1841
384805,1840,1840,1840
384806,1840,1840,1840
384807,1837,1837,1837
384808,1837,1837,1837
384809,1837,1837,1837
384810,1838,1838,1838
384811,1838,1838,1838
384813,1846,1846,1846
384814,1843,1843,1843
384815,1846,1846,1846
384816,1831,1831,1831
384817,1833,1833,1833
384818,1830,1830,1830
384819,1838,1838,1838
384820,1837,1837,1837
384821,1840,1840,1840
384822,1840,1840,1840
384824,1853,1853,1853
384825,1851,1851,1851
384826,1856,1856,1856
384827,1856,1856,1856
384828,1844,1844,1844
384829,1851,1851,1851
384830,1849,1849,1849
384831,1846,1846,1846
384832,1847,1847,1847
384833,1853,1853,1853
384839,1871,1871,1871
384840,1881,1881,1881
384841,1870,1870,1870
384842,1867,1867,1867
384843,1870,1870,1870
384844,1872,1872,1872
384845,1872,1872,1872
384846,1871,1871,1871
384847,1871,1871,1871
384848,1869,1869,1869
384858,1889,1889,1889
384859,1887,1887,1887
384860,1892,1892,1892
384861,1891,1891,1891
384862,1889,1889,1889
384863,1887,1887,1887
384864,1883,1883,1883
384865,1882,1882,1882
384866,1885,1885,1885
384867,1891,1891,1891
384869,1881,1881,1881
384870,1876,1876,1876
384871,1878,1878,1878
384872,1883,1883,1883
384873,1879,1879,1879
384874,1879,1879,1879
384875,1878,1878,1878
384876,1879,1879,1879
384877,1883,1883,1883
384878,1877,1877,1877
384880,1882,1882,1882
384881,1881,1881,1881
384882,1884,1884,1884
384883,1879,1879,1879
384884,1879,1879,1879
384885,1879,1879,1879
384886,1872,1872,1872
384887,1872,1872,1872
384888,1872,1872,1872
384889,1873,1873,1873
384895,1884,1884,1884
384896,1883,1883,1883
384897,1888,1888,1888
384898,1892,1892,1892
384899,1881,1881,1881
384900,1876,1876,1876
384901,1873,1873,1873
384902,1884,1884,1884
384903,1883,1883,1883
384904,1879,1879,1879
384907,1895,1895,1895
384908,1894,1894,1894
384909,1892,1892,1892
384910,1895,1895,1895
384911,1891,1891,1891
384912,1889,1889,1889
384913,1887,1887,1887
384914,1888,1888,1888
384915,1895,1895,1895
384916,1894,1894,1894
384918,1877,1877,1877
384919,1874,1874,1874
384920,1874,1874,1874
384921,1877,1877,1877
384922,1872,1872,1872
384923,1871,1871,1871
384924,1871,1871,1871
384925,1872,1872,1872
384926,1882,1882,1882
384927,1878,1878,1878
384929,1868,1868,1868
384930,1867,1867,1867
384931,1862,1862,1862
384932,1863,1863,1863
384933,1863,1863,1863
384934,1856,1856,1856
384935,1856,1856,1856
384936,1877,1877,1877
384937,1858,1858,1858
384938,1869,1869,1869
384940,1849,1849,1849
384941,1854,1854,1854
384942,1846,1846,1846
384943,1841,1841,1841
384944,1840,1840,1840
384945,1823,1823,1823
384946,1838,1838,1838
384947,1836,1836,1836
384948,1834,1834,1834
384949,1833,1833,1833
384952,1853,1853,1853
384953,1835,1835,1835
384954,1838,1838,1838
384955,1831,1831,1831
384956,1839,1839,1839
384957,1839,1839,1839
384958,1840,1840,1840
384959,1851,1851,1851
384960,1840,1840,1840
384961,1841,1841,1841
384963,1840,1840,1840
384964,1839,1839,1839
384965,1840,1840,1840
384966,1853,1853,1853
384967,1846,1846,1846
384968,1845,1845,1845
384969,1844,1844,1844
384970,1842,1842,1842
384971,1840,1840,1840
384972,1840,1840,1840
384980,1837,1837,1837
384981,1834,1834,1834
384982,1835,1835,1835
384983,1837,1837,1837
384984,1834,1834,1834
384985,1835,1835,1835
384986,1838,1838,1838
384987,1840,1840,1840
384988,1838,1838,1838
384989,1838,1838,1838
384992,1845,1845,1845
384993,1840,1840,1840
384994,1841,1841,1841
384995,1842,1842,1842
384996,1839,1839,1839
384997,1840,1840,1840
384998,1841,1841,1841
384999,1845,1845,1845
385000,1843,1843,1843
385001,1841,1841,1841
385003,1859,1859,1859
385004,1861,1861,1861
385005,1867,1867,1867
385006,1840,1840,1840
385007,1846,1846,1846
385008,1846,1846,1846
385009,1849,1849,1849
385010,1855,1855,1855
385011,1857,1857,1857
385012,1862,1862,1862
385108,1861,1861,1861
385109,1857,1857,1857
385110,1858,1858,1858
385111,1865,1865,1865
385112,1865,1865,1865
385113,1863,1863,1863
385114,1863,1863,1863
385115,1863,1863,1863
385116,1867,1867,1867
385117,1860,1860,1860
385119,1891,1891,1891
385120,1869,1869,1869
385121,1868,1868,1868
385122,1865,1865,1865
385123,1865,1865,1865
385124,1864,1864,1864
385125,1866,1866,1866
385126,1861,1861,1861
385127,1863,1863,1863
385128,1865,1865,1865
385130,1863,1863,1863
385131,1865,1865,1865
385132,1861,1861,1861
385133,1866,1866,1866
385134,1850,1850,1850
385135,1865,1865,1865
385136,1868,1868,1868
385137,1866,1866,1866
385138,1872,1872,1872
385139,1866,1866,1866
385141,1856,1856,1856
385142,1870,1870,1870
385143,1868,1868,1868
385144,1865,1865,1865
385145,1865,1865,1865
385146,1867,1867,1867
385147,1865,1865,1865
385148,1865,1865,1865
385149,1871,1871,1871
385150,1871,1871,1871
385153,1893,1893,1893
385154,1901,1901,1901
385155,1870,1870,1870
385156,1872,1872,1872
385157,1873,1873,1873
385158,1878,1878,1878
385159,1886,1886,1886
385160,1887,1887,1887
385161,1894,1894,1894
385162,1894,1894,1894
385164,1899,1899,1899
385165,1896,1896,1896
385166,1893,1893,1893
385167,1895,1895,1895
385168,1904,1904,1904
385169,1904,1904,1904
385170,1904,1904,1904
385171,1904,1904,1904
385172,1901,1901,1901
385173,1898,1898,1898
385182,1847,1847,1847
385183,1873,1873,1873
385184,1872,1872,1872
385185,1867,1867,1867
385186,1869,1869,1869
385187,1862,1862,1862
385188,1854,1854,1854
385189,1851,1851,1851
385190,1853,1853,1853
385191,1851,1851,1851
385195,1866,1866,1866
385196,1863,1863,1863
385197,1870,1870,1870
385198,1871,1871,1871
385199,1851,1851,1851
385200,1848,1848,1848
385201,1854,1854,1854
385202,1866,1866,1866
385203,1864,1864,1864
385204,1860,1860,1860
385206,1901,1901,1901
385207,1904,1904,1904
385208,1905,1905,1905
385209,1907,1907,1907
385210,1911,1911,1911
385211,1914,1914,1914
385212,1883,1883,1883
385213,1886,1886,1886
385214,1888,1888,1888
385215,1893,1893,1893
385217,1923,1923,1923
385218,1921,1921,1921
385219,1925,1925,1925
385220,1925,1925,1925
385221,1926,1926,1926
385222,1931,1931,1931
385223,1934,1934,1934
385224,1915,1915,1915
385225,1921,1921,1921
385226,1922,1922,1922
385229,1925,1925,1925
385230,1936,1936,1936
385231,1936,1936,1936
385232,1939,1939,1939
385233,1933,1933,1933
385234,1941,1941,1941
385235,1950,1950,1950
385236,1948,1948,1948
385237,1933,1933,1933
385238,1930,1930,1930
385320,1954,1954,1954
385321,1953,1953,1953
385322,1954,1954,1954
385323,1956,1956,1956
385324,1958,1958,1958
385325,1955,1955,1955
385326,1953,1953,1953
385327,1954,1954,1954
385328,1958,1958,1958
385329,1954,1954,1954
385331,1962,1962,1962
385332,1958,1958,1958
385333,1958,1958,1958
385334,1958,1958,1958
385335,1962,1962,1962
385336,1959,1959,1959
385337,1967,1967,1967
385338,1963,1963,1963
385339,1968,1968,1968
385340,1967,1967,1967
385342,1959,1959,1959
385343,1960,1960,1960
385344,1964,1964,1964
385345,1962,1962,1962
385346,1954,1954,1954
385347,1961,1961,1961
385348,1963,1963,1963
385349,1957,1957,1957
385350,1954,1954,1954
385351,1954,1954,1954
385353,1971,1971,1971
385354,1968,1968,1968
385355,1969,1969,1969
385356,1963,1963,1963
385357,1965,1965,1965
385358,1970,1970,1970
385359,1968,1968,1968
385360,1970,1970,1970
385361,1968,1968,1968
385362,1969,1969,1969
385365,1959,1959,1959
385366,1962,1962,1962
385367,1963,1963,1963
385368,1968,1968,1968
385369,1967,1967,1967
385370,1963,1963,1963
385371,1968,1968,1968
385372,1967,1967,1967
385373,1958,1958,1958
385374,1968,1968,1968
385377,1982,1982,1982
385378,1983,1983,1983
385379,1982,1982,1982
385380,1984,1984,1984
385381,1981,1981,1981
385382,1981,1981,1981
385383,1979,1979,1979
385384,1981,1981,1981
385385,1981,1981,1981
385386,1982,1982,1982
385395,1957,1957,1957
385396,1957,1957,1957
385397,1952,1952,1952
385398,1949,1949,1949
385399,1945,1945,1945
385400,1955,1955,1955
385401,1955,1955,1955
385402,1959,1959,1959
385403,1956,1956,1956
385404,1954,1954,1954
385407,1929,1929,1929
385408,1927,1927,1927
385409,1926,1926,1926
385410,1923,1923,1923
385411,1923,1923,1923
385412,1922,1922,1922
385413,1929,1929,1929
385414,1936,1936,1936
385415,1936,1936,1936
385416,1936,1936,1936
385418,1926,1926,1926
385419,1926,1926,1926
385420,1925,1925,1925
385421,1920,1920,1920
385422,1924,1924,1924
385423,1919,1919,1919
385424,1919,1919,1919
385425,1917,1917,1917
385426,1924,1924,1924
385427,1927,1927,1927
385517,1835,1835,1835
385518,1838,1838,1838
385519,1833,1833,1833
385520,1837,1837,1837
385521,1838,1838,1838
385522,1829,1829,1829
385523,1834,1834,1834
385524,1831,1831,1831
385525,1858,1858,1858
385526,1833,1833,1833
385528,1818,1818,1818
385529,1819,1819,1819
385530,1818,1818,1818
385531,1815,1815,1815
385532,1814,1814,1814
385533,1821,1821,1821
385534,1821,1821,1821
385535,1818,1818,1818
385536,1831,1831,1831
385537,1821,1821,1821
385539,1820,1820,1820
385540,1821,1821,1821
385541,1822,1822,1822
385542,1819,1819,1819
385543,1819,1819,1819
385544,1817,1817,1817
385545,1818,1818,1818
385546,1821,1821,1821
385547,1820,1820,1820
385548,1821,1821,1821
385550,1825,1825,1825
385551,1819,1819,1819
385552,1827,1827,1827
385553,1823,1823,1823
385554,1824,1824,1824
385555,1823,1823,1823
385556,1822,1822,1822
385557,1819,1819,1819
385558,1826,1826,1826
385559,1821,1821,1821
385562,1811,1811,1811
385563,1822,1822,1822
385564,1821,1821,1821
385565,1818,1818,1818
385566,1819,1819,1819
385567,1817,1817,1817
385568,1814,1814,1814
385569,1817,1817,1817
385570,1813,1813,1813
385571,1813,1813,1813
385574,1818,1818,1818
385575,1812,1812,1812
385576,1814,1814,1814
385577,1808,1808,1808
385578,1809,1809,1809
385579,1808,1808,1808
385580,1808,1808,1808
385581,1814,1814,1814
385582,1809,1809,1809
385583,1814,1814,1814
385585,1799,1799,1799
385586,1802,1802,1802
385587,1797,1797,1797
385588,1795,1795,1795
385589,1797,1797,1797
385590,1823,1823,1823
385591,1806,1806,1806
385592,1807,1807,1807
385593,1804,1804,1804
385594,1804,1804,1804
385596,1785,1785,1785
385597,1789,1789,1789
385598,1783,1783,1783
385599,1783,1783,1783
385600,1781,1781,1781
385601,1777,1777,1777
385602,1793,1793,1793
385603,1790,1790,1790
385604,1785,1785,1785
385605,1786,1786,1786
385611,1774,1774,1774
385612,1775,1775,1775
385613,1776,1776,1776
385614,1781,1781,1781
385615,1781,1781,1781
385616,1782,1782,1782
385617,1781,1781,1781
385618,1789,1789,1789
385619,1792,1792,1792
385620,1792,1792,1792
385622,1812,1812,1812
385623,1813,1813,1813
385624,1802,1802,1802
385625,1797,1797,1797
385626,1807,1807,1807
385627,1807,1807,1807
385628,1808,1808,1808
385629,1807,1807,1807
385630,1808,1808,1808
385631,1810,1810,1810
385633,1823,1823,1823
385634,1821,1821,1821
385635,1822,1822,1822
385636,1819,1819,1819
385637,1817,1817,1817
385638,1818,1818,1818
385639,1820,1820,1820
385640,1823,1823,1823
385641,1823,1823,1823
385642,1823,1823,1823
385650,1813,1813,1813
385651,1812,1812,1812
385652,1812,1812,1812
385653,1819,1819,1819
385654,1817,1817,1817
385655,1823,1823,1823
385656,1825,1825,1825
385657,1828,1828,1828
385658,1830,1830,1830
385659,1809,1809,1809
385662,1829,1829,1829
385663,1828,1828,1828
385664,1835,1835,1835
385665,1839,1839,1839
385666,1839,1839,1839
385667,1835,1835,1835
385668,1838,1838,1838
385669,1835,1835,1835
385670,1831,1831,1831
385671,1831,1831,1831
385679,1823,1823,1823
385680,1823,1823,1823
385681,1829,1829,1829
385682,1834,1834,1834
385683,1839,1839,1839
385684,1839,1839,1839
385685,1844,1844,1844
385686,1844,1844,1844
385687,1819,1819,1819
385688,1820,1820,1820
385690,1857,1857,1857
385691,1863,1863,1863
385692,1872,1872,1872
385693,1885,1885,1885
385694,1881,1881,1881
385695,1883,1883,1883
385696,1888,1888,1888
385697,1872,1872,1872
385698,1892,1892,1892
385699,1894,1894,1894
385702,1895,1895,1895
385703,1889,1889,1889
385704,1891,1891,1891
385705,1900,1900,1900
385706,1897,1897,1897
385707,1879,1879,1879
385708,1887,1887,1887
385709,1889,1889,1889
385710,1890,1890,1890
385711,1886,1886,1886
385714,1891,1891,1891
385715,1891,1891,1891
385716,1887,1887,1887
385717,1882,1882,1882
385718,1893,1893,1893
385719,1888,1888,1888
385720,1891,1891,1891
385721,1891,1891,1891
385722,1895,1895,1895
385723,1891,1891,1891
385725,1872,1872,1872
385726,1871,1871,1871
385727,1875,1875,1875
385728,1874,1874,1874
385729,1872,1872,1872
385730,1876,1876,1876
385731,1877,1877,1877
385732,1868,1868,1868
385733,1874,1874,1874
385734,1875,1875,1875
385736,1866,1866,1866
385737,1863,1863,1863
385738,1863,1863,1863
385739,1859,1859,1859
385740,1858,1858,1858
385741,1858,1858,1858
385742,1871,1871,1871
385743,1872,1872,1872
385744,1869,1869,1869
385745,1862,1862,1862
385748,1845,1845,1845
385749,1840,1840,1840
385750,1840,1840,1840
385751,1836,1836,1836
385752,1840,1840,1840
385753,1835,1835,1835
385754,1832,1832,1832
385755,1840,1840,1840
385756,1846,1846,1846
385757,1847,1847,1847
385761,1842,1842,1842
385762,1838,1838,1838
385763,1836,1836,1836
385764,1831,1831,1831
385765,1830,1830,1830
385766,1833,1833,1833
385767,1839,1839,1839
385768,1821,1821,1821
385769,1839,1839,1839
385770,1840,1840,1840
385772,1857,1857,1857
385773,1856,1856,1856
385774,1854,1854,1854
385775,1852,1852,1852
385776,1853,1853,1853
385777,1855,1855,1855
385778,1853,1853,1853
385779,1853,1853,1853
385780,1856,1856,1856
385781,1854,1854,1854
385783,1838,1838,1838
385784,1837,1837,1837
385785,1840,1840,1840
385786,1853,1853,1853
385787,1853,1853,1853
385788,1852,1852,1852
385789,1847,1847,1847
385790,1841,1841,1841
385791,1840,1840,1840
385792,1840,1840,1840
385794,1858,1858,1858
385795,1859,1859,1859
385796,1858,1858,1858
385797,1857,1857,1857
385798,1859,1859,1859
385799,1843,1843,1843
385800,1845,1845,1845
385801,1835,1835,1835
385802,1850,1850,1850
385803,1850,1850,1850
385806,1843,1843,1843
385807,1842,1842,1842
385808,1845,1845,1845
385809,1843,1843,1843
385810,1843,1843,1843
385811,1853,1853,1853
385812,1847,1847,1847
385813,1849,1849,1849
385814,1847,1847,1847
385815,1853,1853,1853
385817,1858,1858,1858
385818,1859,1859,1859
385819,1858,1858,1858
385820,1861,1861,1861
385821,1859,1859,1859
385822,1860,1860,1860
385823,1861,1861,1861
385824,1855,1855,1855
385825,1854,1854,1854
385826,1856,1856,1856
385835,1847,1847,1847
385836,1849,1849,1849
385837,1846,1846,1846
385838,1850,1850,1850
385839,1847,1847,1847
385840,1852,1852,1852
385841,1849,1849,1849
385842,1851,1851,1851
385843,1847,1847,1847
385844,1849,1849,1849
385846,1853,1853,1853
385847,1854,1854,1854
385848,1855,1855,1855
385849,1856,1856,1856
385850,1856,1856,1856
385851,1861,1861,1861
385852,1861,1861,1861
385853,1850,1850,1850
385854,1850,1850,1850
385855,1850,1850,1850
385857,1876,1876,1876
385858,1879,1879,1879
385859,1878,1878,1878
385860,1885,1885,1885
385861,1877,1877,1877
385862,1879,1879,1879
385863,1872,1872,1872
385864,1870,1870,1870
385865,1871,1871,1871
385866,1872,1872,1872
385886,1894,1894,1894
385887,1893,1893,1893
385888,1893,1893,1893
385889,1895,1895,1895
385890,1896,1896,1896
385891,1897,1897,1897
385892,1888,1888,1888
385893,1885,1885,1885
385894,1887,1887,1887
385895,1893,1893,1893
385898,1901,1901,1901
385899,1900,1900,1900
385900,1903,1903,1903
385901,1897,1897,1897
385902,1898,1898,1898
385903,1899,1899,1899
385904,1902,1902,1902
385905,1898,1898,1898
385906,1901,1901,1901
385907,1905,1905,1905
385911,1894,1894,1894
385912,1882,1882,1882
385913,1894,1894,1894
385914,1890,1890,1890
385915,1886,1886,1886
385916,1881,1881,1881
385917,1886,1886,1886
385918,1867,1867,1867
385919,1889,1889,1889
385920,1887,1887,1887
385922,1876,1876,1876
385923,1881,1881,1881
385924,1881,1881,1881
385925,1884,1884,1884
385926,1885,1885,1885
385927,1879,1879,1879
385928,1886,1886,1886
385929,1882,1882,1882
385930,1877,1877,1877
385931,1867,1867,1867
385935,1877,1877,1877
385936,1869,1869,1869
385937,1872,1872,1872
385938,1880,1880,1880
385939,1881,1881,1881
385940,1879,1879,1879
385941,1875,1875,1875
385942,1875,1875,1875
385943,1875,1875,1875
385944,1874,1874,1874
385947,1859,1859,1859
385948,1864,1864,1864
385949,1867,1867,1867
385950,1871,1871,1871
385951,1870,1870,1870
385952,1872,1872,1872
385953,1873,1873,1873
385954,1862,1862,1862
385955,1862,1862,1862
385956,1863,1863,1863
385958,1879,1879,1879
385959,1875,1875,1875
385960,1877,1877,1877
385961,1874,1874,1874
385962,1875,1875,1875
385963,1872,1872,1872
385964,1872,1872,1872
385965,1871,1871,1871
385966,1879,1879,1879
385967,1879,1879,1879
385969,1866,1866,1866
385970,1866,1866,1866
385971,1862,1862,1862
385972,1862,1862,1862
385973,1862,1862,1862
385974,1861,1861,1861
385975,1858,1858,1858
385976,1856,1856,1856
385977,1858,1858,1858
385978,1868,1868,1868
385980,1850,1850,1850
385981,1843,1843,1843
385982,1844,1844,1844
385983,1838,1838,1838
385984,1835,1835,1835
385985,1834,1834,1834
385986,1838,1838,1838
385987,1835,1835,1835
385988,1826,1826,1826
385989,1830,1830,1830
385992,1818,1818,1818
385993,1829,1829,1829
385994,1821,1821,1821
385995,1817,1817,1817
385996,1819,1819,1819
385997,1823,1823,1823
385998,1815,1815,1815
385999,1815,1815,1815
386000,1818,1818,1818
386001,1819,1819,1819
386005,1853,1853,1853
386006,1851,1851,1851
386007,1855,1855,1855
386008,1862,1862,1862
386009,1831,1831,1831
386010,1834,1834,1834
386011,1827,1827,1827
386012,1839,1839,1839
386013,1841,1841,1841
386014,1843,1843,1843
386023,1846,1846,1846
386024,1839,1839,1839
386025,1854,1854,1854
386026,1856,1856,1856
386027,1862,1862,1862
386028,1845,1845,1845
386029,1843,1843,1843
386030,1841,1841,1841
386031,1840,1840,1840
386032,1840,1840,1840
386035,1839,1839,1839
386036,1840,1840,1840
386037,1839,1839,1839
386038,1839,1839,1839
386039,1835,1835,1835
386040,1840,1840,1840
386041,1854,1854,1854
386042,1844,1844,1844
386043,1840,1840,1840
386044,1841,1841,1841
386046,1838,1838,1838
386047,1840,1840,1840
386048,1836,1836,1836
386049,1838,1838,1838
386050,1837,1837,1837
386051,1840,1840,1840
386052,1837,1837,1837
386053,1838,1838,1838
386054,1839,1839,1839
386055,1839,1839,1839
386232,1927,1927,1927
386233,1949,1949,1949
386234,1942,1942,1942
386235,1939,1939,1939
386236,1942,1942,1942
386237,1942,1942,1942
386238,1937,1937,1937
386239,1937,1937,1937
386240,1933,1933,1933
386241,1927,1927,1927
386243,1913,1913,1913
386244,1916,1916,1916
386245,1917,1917,1917
386246,1926,1926,1926
386247,1923,1923,1923
386248,1918,1918,1918
386249,1918,1918,1918
386250,1922,1922,1922
386251,1915,1915,1915
386252,1917,1917,1917
386254,1921,1921,1921
386255,1918,1918,1918
386256,1912,1912,1912
386257,1910,1910,1910
386258,1923,1923,1923
386259,1924,1924,1924
386260,1923,1923,1923
386261,1926,1926,1926
386262,1924,1924,1924
386263,1927,1927,1927
386265,1885,1885,1885
386266,1889,1889,1889
386267,1876,1876,1876
386268,1885,1885,1885
386269,1886,1886,1886
386270,1901,1901,1901
386271,1894,1894,1894
386272,1899,1899,1899
386273,1891,1891,1891
386274,1885,1885,1885
386277,1878,1878,1878
386278,1865,1865,1865
386279,1870,1870,1870
386280,1871,1871,1871
386281,1867,1867,1867
386282,1866,1866,1866
386283,1887,1887,1887
386284,1882,1882,1882
386285,1885,1885,1885
386286,1879,1879,1879
386289,1863,1863,1863
386290,1864,1864,1864
386291,1864,1864,1864
386292,1866,1866,1866
386293,1870,1870,1870
386294,1867,1867,1867
386295,1867,1867,1867
386296,1867,1867,1867
386297,1868,1868,1868
386298,1861,1861,1861
386300,1870,1870,1870
386301,1868,1868,1868
386302,1867,1867,1867
386303,1871,1871,1871
386304,1871,1871,1871
386305,1871,1871,1871
386306,1872,1872,1872
386307,1869,1869,1869
386308,1872,1872,1872
386309,1872,1872,1872
386311,1873,1873,1873
386312,1872,1872,1872
386313,1872,1872,1872
386314,1875,1875,1875
386315,1875,1875,1875
386316,1881,1881,1881
386317,1874,1874,1874
386318,1876,1876,1876
386319,1879,1879,1879
386320,1875,1875,1875
386323,1878,1878,1878
386324,1881,1881,1881
386325,1873,1873,1873
386326,1877,1877,1877
386327,1883,1883,1883
386328,1878,1878,1878
386329,1874,1874,1874
386330,1877,1877,1877
386331,1877,1877,1877
386332,1882,1882,1882
386337,1882,1882,1882
386338,1882,1882,1882
386339,1882,1882,1882
386340,1882,1882,1882
386341,1882,1882,1882
386342,1884,1884,1884
386343,1872,1872,1872
386344,1872,1872,1872
386345,1873,1873,1873
386346,1874,1874,1874
386348,1887,1887,1887
386349,1890,1890,1890
386350,1890,1890,1890
386351,1893,1893,1893
386352,1891,1891,1891
386353,1893,1893,1893
386354,1893,1893,1893
386355,1889,1889,1889
386356,1885,1885,1885
386357,1886,1886,1886
386365,1854,1854,1854
386366,1851,1851,1851
386367,1851,1851,1851
386368,1849,1849,1849
386369,1872,1872,1872
386370,1869,1869,1869
386371,1872,1872,1872
386372,1866,1866,1866
386373,1858,1858,1858
386374,1856,1856,1856
386377,1843,1843,1843
386378,1841,1841,1841
386379,1844,1844,1844
386380,1840,1840,1840
386381,1840,1840,1840
386382,1842,1842,1842
386383,1840,1840,1840
386384,1852,1852,1852
386385,1846,1846,1846
386386,1843,1843,1843
386396,1854,1854,1854
386397,1849,1849,1849
386398,1845,1845,1845
386399,1849,1849,1849
386400,1843,1843,1843
386401,1852,1852,1852
386402,1853,1853,1853
386403,1854,1854,1854
386404,1856,1856,1856
386405,1858,1858,1858
386407,1839,1839,1839
386408,1838,1838,1838
386409,1838,1838,1838
386410,1841,1841,1841
386411,1841,1841,1841
386412,1840,1840,1840
386413,1842,1842,1842
386414,1840,1840,1840
386415,1840,1840,1840
386416,1840,1840,1840
386419,1860,1860,1860
386420,1863,1863,1863
386421,1871,1871,1871
386422,1857,1857,1857
386423,1868,1868,1868
386424,1863,1863,1863
386425,1865,1865,1865
386426,1867,1867,1867
386427,1866,1866,1866
386428,1856,1856,1856
386432,1861,1861,1861
386433,1851,1851,1851
386434,1860,1860,1860
386435,1860,1860,1860
386436,1862,1862,1862
386437,1859,1859,1859
386438,1862,1862,1862
386439,1865,1865,1865
386440,1861,1861,1861
386441,1864,1864,1864
386442,1846,1846,1846
386443,1851,1851,1851
386444,1856,1856,1856
386445,1863,1863,1863
386446,1858,1858,1858
386447,1857,1857,1857
386448,1858,1858,1858
386449,1855,1855,1855
386450,1853,1853,1853
386451,1850,1850,1850
386453,1846,1846,1846
386454,1849,1849,1849
386455,1846,1846,1846
386456,1852,1852,1852
386457,1853,1853,1853
386458,1853,1853,1853
386459,1853,1853,1853
386460,1855,1855,1855
386461,1850,1850,1850
386462,1849,1849,1849
386464,1840,1840,1840
386465,1840,1840,1840
386466,1837,1837,1837
386467,1840,1840,1840
386468,1846,1846,1846
386469,1840,1840,1840
386470,1840,1840,1840
386471,1840,1840,1840
386472,1840,1840,1840
386473,1840,1840,1840
386478,1850,1850,1850
386479,1848,1848,1848
386480,1856,1856,1856
386481,1856,1856,1856
386482,1855,1855,1855
386483,1856,1856,1856
386484,1857,1857,1857
386485,1847,1847,1847
386486,1843,1843,1843
386487,1847,1847,1847
386489,1866,1866,1866
386490,1869,1869,1869
386491,1870,1870,1870
386492,1872,1872,1872
386493,1873,1873,1873
386494,1878,1878,1878
386495,1881,1881,1881
386496,1881,1881,1881
386497,1879,1879,1879
386498,1864,1864,1864
386506,1874,1874,1874
386507,1879,1879,1879
386508,1883,1883,1883
386509,1884,1884,1884
386510,1885,1885,1885
386511,1875,1875,1875
386512,1878,1878,1878
386513,1878,1878,1878
386514,1875,1875,1875
386515,1875,1875,1875
386518,1904,1904,1904
386519,1903,1903,1903
386520,1904,1904,1904
386521,1902,1902,1902
386522,1904,1904,1904
386523,1904,1904,1904
386524,1901,1901,1901
386525,1903,1903,1903
386526,1898,1898,1898
386527,1898,1898,1898
386532,1899,1899,1899
386533,1902,1902,1902
386534,1903,1903,1903
386535,1904,1904,1904
386536,1903,1903,1903
386537,1901,1901,1901
386538,1901,1901,1901
386539,1902,1902,1902
386540,1898,1898,1898
386541,1899,1899,1899
386543,1893,1893,1893
386544,1894,1894,1894
386545,1897,1897,1897
386546,1899,1899,1899
386547,1886,1886,1886
386548,1903,1903,1903
386549,1893,1893,1893
386550,1890,1890,1890
386551,1890,1890,1890
386552,1891,1891,1891
386555,1911,1911,1911
386556,1905,1905,1905
386557,1907,1907,1907
386558,1905,1905,1905
386559,1897,1897,1897
386560,1901,1901,1901
386561,1904,1904,1904
386562,1904,1904,1904
386563,1906,1906,1906
386564,1907,1907,1907
386567,1904,1904,1904
386568,1904,1904,1904
386569,1904,1904,1904
386570,1904,1904,1904
386571,1904,1904,1904
386572,1904,1904,1904
386573,1901,1901,1901
386574,1906,1906,1906
386575,1906,1906,1906
386576,1905,1905,1905
386584,1851,1851,1851
386585,1849,1849,1849
386586,1844,1844,1844
386587,1872,1872,1872
386588,1876,1876,1876
386589,1872,1872,1872
386590,1869,1869,1869
386591,1858,1858,1858
386592,1857,1857,1857
386593,1856,1856,1856
386605,1826,1826,1826
386606,1834,1834,1834
386607,1828,1828,1828
386608,1834,1834,1834
386609,1825,1825,1825
386610,1822,1822,1822
386611,1825,1825,1825
386612,1821,1821,1821
386613,1823,1823,1823
386614,1825,1825,1825
386617,1826,1826,1826
386618,1829,1829,1829
386619,1825,1825,1825
386620,1826,1826,1826
386621,1819,1819,1819
386622,1822,1822,1822
386623,1831,1831,1831
386624,1830,1830,1830
386625,1829,1829,1829
386626,1829,1829,1829
386629,1820,1820,1820
386630,1821,1821,1821
386631,1828,1828,1828
386632,1834,1834,1834
386633,1838,1838,1838
386634,1840,1840,1840
386635,1843,1843,1843
386636,1841,1841,1841
386637,1817,1817,1817
386638,1821,1821,1821
386641,1846,1846,1846
386642,1842,1842,1842
386643,1846,1846,1846
386644,1842,1842,1842
386645,1847,1847,1847
386646,1850,1850,1850
386647,1844,1844,1844
386648,1841,1841,1841
386649,1847,1847,1847
386650,1846,1846,1846
386653,1856,1856,1856
386654,1857,1857,1857
386655,1856,1856,1856
386656,1856,1856,1856
386657,1852,1852,1852
386658,1859,1859,1859
386659,1855,1855,1855
386660,1857,1857,1857
386661,1859,1859,1859
386662,1863,1863,1863
386664,1841,1841,1841
386665,1842,1842,1842
386666,1840,1840,1840
386667,1823,1823,1823
386668,1856,1856,1856
386669,1850,1850,1850
386670,1849,1849,1849
386671,1845,1845,1845
386672,1842,1842,1842
386673,1841,1841,1841
386675,1850,1850,1850
386676,1850,1850,1850
386677,1845,1845,1845
386678,1847,1847,1847
386679,1842,1842,1842
386680,1829,1829,1829
386681,1845,1845,1845
386682,1846,1846,1846
386683,1852,1852,1852
386684,1851,1851,1851
386686,1815,1815,1815
386687,1819,1819,1819
386688,1819,1819,1819
386689,1819,1819,1819
386690,1824,1824,1824
386691,1824,1824,1824
386692,1843,1843,1843
386693,1833,1833,1833
386694,1830,1830,1830
386695,1823,1823,1823
386700,1824,1824,1824
386701,1825,1825,1825
386702,1824,1824,1824
386703,1819,1819,1819
386704,1820,1820,1820
386705,1823,1823,1823
386706,1823,1823,1823
386707,1820,1820,1820
386708,1821,1821,1821
386709,1823,1823,1823
386711,1835,1835,1835
386712,1824,1824,1824
386713,1824,1824,1824
386714,1827,1827,1827
386715,1827,1827,1827
386716,1833,1833,1833
386717,1833,1833,1833
386718,1833,1833,1833
386719,1837,1837,1837
386720,1830,1830,1830
386731,1865,1865,1865
386732,1836,1836,1836
386733,1843,1843,1843
386734,1843,1843,1843
386735,1844,1844,1844
386736,1852,1852,1852
386737,1857,1857,1857
386738,1858,1858,1858
386739,1859,1859,1859
386740,1865,1865,1865
386743,1870,1870,1870
386744,1872,1872,1872
386745,1872,1872,1872
386746,1878,1878,1878
386747,1870,1870,1870
386748,1870,1870,1870
386749,1866,1866,1866
386750,1865,1865,1865
386751,1868,1868,1868
386752,1869,1869,1869
386754,1907,1907,1907
386755,1905,1905,1905
386756,1907,1907,1907
386757,1904,1904,1904
386758,1886,1886,1886
386759,1889,1889,1889
386760,1891,1891,1891
386761,1902,1902,1902
386762,1904,1904,1904
386763,1910,1910,1910
386765,1903,1903,1903
386766,1903,1903,1903
386767,1905,1905,1905
386768,1907,1907,1907
386769,1909,1909,1909
386770,1903,1903,1903
386771,1904,1904,1904
386772,1904,1904,1904
386773,1904,1904,1904
386774,1903,1903,1903
386777,1904,1904,1904
386778,1903,1903,1903
386779,1900,1900,1900
386780,1903,1903,1903
386781,1903,1903,1903
386782,1900,1900,1900
386783,1901,1901,1901
386784,1907,1907,1907
386785,1903,1903,1903
386786,1906,1906,1906
386789,1897,1897,1897
386790,1897,1897,1897
386791,1898,1898,1898
386792,1903,1903,1903
386793,1904,1904,1904
386794,1904,1904,1904
386795,1905,1905,1905
386796,1906,1906,1906
386797,1906,1906,1906
386798,1897,1897,1897
386809,1899,1899,1899
386810,1899,1899,1899
386811,1899,1899,1899
386812,1903,1903,1903
386813,1904,1904,1904
386814,1906,1906,1906
386815,1910,1910,1910
386816,1909,1909,1909
386817,1916,1916,1916
386818,1891,1891,1891
386822,1914,1914,1914
386823,1918,1918,1918
386824,1919,1919,1919
386825,1921,1921,1921
386826,1920,1920,1920
386827,1919,1919,1919
386828,1927,1927,1927
386829,1919,1919,1919
386830,1919,1919,1919
386831,1919,1919,1919
386834,1919,1919,1919
386835,1920,1920,1920
386836,1916,1916,1916
386837,1917,1917,1917
386838,1921,1921,1921
386839,1919,1919,1919
386840,1914,1914,1914
386841,1915,1915,1915
386842,1918,1918,1918
386843,1916,1916,1916
386845,1917,1917,1917
386846,1916,1916,1916
386847,1913,1913,1913
386848,1917,1917,1917
386849,1920,1920,1920
386850,1923,1923,1923
386851,1920,1920,1920
386852,1919,1919,1919
386853,1923,1923,1923
386854,1917,1917,1917
386857,1915,1915,1915
386858,1915,1915,1915
386859,1915,1915,1915
386860,1919,1919,1919
386861,1925,1925,1925
386862,1927,1927,1927
386863,1915,1915,1915
386864,1922,1922,1922
386865,1915,1915,1915
386866,1918,1918,1918
386868,1929,1929,1929
386869,1929,1929,1929
386870,1931,1931,1931
386871,1932,1932,1932
386872,1929,1929,1929
386873,1927,1927,1927
386874,1927,1927,1927
386875,1931,1931,1931
386876,1931,1931,1931
386877,1929,1929,1929
386879,1930,1930,1930
386880,1929,1929,1929
386881,1933,1933,1933
386882,1930,1930,1930
386883,1932,1932,1932
386884,1931,1931,1931
386885,1932,1932,1932
386886,1936,1936,1936
386887,1937,1937,1937
386888,1932,1932,1932
386896,1936,1936,1936
386897,1938,1938,1938
386898,1936,1936,1936
386899,1938,1938,1938
386900,1933,1933,1933
386901,1941,1941,1941
386902,1936,1936,1936
386903,1936,1936,1936
386904,1947,1947,1947
386905,1936,1936,1936
386908,1936,1936,1936
386909,1939,1939,1939
386910,1945,1945,1945
386911,1942,1942,1942
386912,1938,1938,1938
386913,1941,1941,1941
386914,1948,1948,1948
386915,1940,1940,1940
386916,1936,1936,1936
386917,1937,1937,1937
386920,1942,1942,1942
386921,1937,1937,1937
386922,1937,1937,1937
386923,1936,1936,1936
386924,1936,1936,1936
386925,1936,1936,1936
386926,1943,1943,1943
386927,1930,1930,1930
386928,1924,1924,1924
386929,1929,1929,1929
386932,1936,1936,1936
386933,1933,1933,1933
386934,1934,1934,1934
386935,1934,1934,1934
386936,1936,1936,1936
386937,1936,1936,1936
386938,1938,1938,1938
386939,1937,1937,1937
386940,1936,1936,1936
386941,1936,1936,1936
386946,1915,1915,1915
386947,1912,1912,1912
386948,1912,1912,1912
386949,1919,1919,1919
386950,1905,1905,1905
386951,1920,1920,1920
386952,1923,1923,1923
386953,1920,1920,1920
386954,1922,1922,1922
386955,1915,1915,1915
386959,1910,1910,1910
386960,1908,1908,1908
386961,1906,1906,1906
386962,1920,1920,1920
386963,1905,1905,1905
386964,1907,1907,1907
386965,1908,1908,1908
386966,1904,1904,1904
386967,1904,1904,1904
386968,1904,1904,1904
386970,1904,1904,1904
386971,1914,1914,1914
386972,1917,1917,1917
386973,1917,1917,1917
386974,1919,1919,1919
386975,1922,1922,1922
386976,1927,1927,1927
386977,1923,1923,1923
386978,1930,1930,1930
386979,1930,1930,1930
386981,1910,1910,1910
386982,1932,1932,1932
386983,1923,1923,1923
386984,1922,1922,1922
386985,1924,1924,1924
386986,1922,1922,1922
386987,1916,1916,1916
386988,1921,1921,1921
386989,1918,1918,1918
386990,1911,1911,1911
386992,1908,1908,1908
386993,1898,1898,1898
386994,1907,1907,1907
386995,1910,1910,1910
386996,1902,1902,1902
386997,1904,1904,1904
386998,1904,1904,1904
386999,1903,1903,1903
387000,1899,1899,1899
387001,1901,1901,1901
387004,1889,1889,1889
387005,1883,1883,1883
387006,1879,1879,1879
387007,1883,1883,1883
387008,1890,1890,1890
387009,1891,1891,1891
387010,1889,1889,1889
387011,1891,1891,1891
387012,1889,1889,1889
387013,1884,1884,1884
387017,1881,1881,1881
387018,1877,1877,1877
387019,1874,1874,1874
387020,1872,1872,1872
387021,1871,1871,1871
387022,1867,1867,1867
387023,1869,1869,1869
387024,1886,1886,1886
387025,1882,1882,1882
387026,1882,1882,1882
387033,1882,1882,1882
387034,1886,1886,1886
387035,1879,1879,1879
387036,1872,1872,1872
387037,1873,1873,1873
387038,1877,1877,1877
387039,1877,1877,1877
387040,1881,1881,1881
387041,1882,1882,1882
387042,1882,1882,1882
387045,1887,1887,1887
387046,1889,1889,1889
387047,1893,1893,1893
387048,1899,1899,1899
387049,1904,1904,1904
387050,1882,1882,1882
387051,1883,1883,1883
387052,1883,1883,1883
387053,1917,1917,1917
387054,1883,1883,1883
387056,1914,1914,1914
387057,1907,1907,1907
387058,1907,1907,1907
387059,1905,1905,1905
387060,1887,1887,1887
387061,1900,1900,1900
387062,1904,1904,1904
387063,1904,1904,1904
387064,1911,1911,1911
387065,1915,1915,1915
387067,1877,1877,1877
387068,1875,1875,1875
387069,1873,1873,1873
387070,1873,1873,1873
387071,1874,1874,1874
387072,1877,1877,1877
387073,1882,1882,1882
387074,1890,1890,1890
387075,1882,1882,1882
387076,1877,1877,1877
387079,1886,1886,1886
387080,1887,1887,1887
387081,1882,1882,1882
387082,1885,1885,1885
387083,1877,1877,1877
387084,1879,1879,1879
387085,1878,1878,1878
387086,1887,1887,1887
387087,1881,1881,1881
387088,1887,1887,1887
387090,1885,1885,1885
387091,1886,1886,1886
387092,1899,1899,1899
387093,1899,1899,1899
387094,1897,1897,1897
387095,1899,1899,1899
387096,1891,1891,1891
387097,1898,1898,1898
387098,1894,1894,1894
387099,1891,1891,1891
387107,1846,1846,1846
387108,1847,1847,1847
387109,1843,1843,1843
387110,1854,1854,1854
387111,1839,1839,1839
387112,1829,1829,1829
387113,1876,1876,1876
387114,1855,1855,1855
387115,1857,1857,1857
387116,1854,1854,1854
387119,1817,1817,1817
387120,1811,1811,1811
387121,1808,1808,1808
387122,1808,1808,1808
387123,1808,1808,1808
387124,1799,1799,1799
387125,1795,1795,1795
387126,1797,1797,1797
387127,1797,1797,1797
387128,1821,1821,1821
387130,1794,1794,1794
387131,1799,1799,1799
387132,1793,1793,1793
387133,1792,1792,1792
387134,1792,1792,1792
387135,1795,1795,1795
387136,1792,1792,1792
387137,1791,1791,1791
387138,1792,1792,1792
387139,1789,1789,1789
387142,1772,1772,1772
387143,1787,1787,1787
387144,1783,1783,1783
387145,1787,1787,1787
387146,1781,1781,1781
387147,1778,1778,1778
387148,1778,1778,1778
387149,1776,1776,1776
387150,1775,1775,1775
387151,1775,1775,1775
387154,1785,1785,1785
387155,1793,1793,1793
387156,1792,1792,1792
387157,1770,1770,1770
387158,1770,1770,1770
387159,1779,1779,1779
387160,1773,1773,1773
387161,1777,1777,1777
387162,1786,1786,1786
387163,1779,1779,1779
387166,1806,1806,1806
387167,1805,1805,1805
387168,1807,1807,1807
387169,1807,1807,1807
387170,1804,1804,1804
387171,1808,1808,1808
387172,1803,1803,1803
387173,1804,1804,1804
387174,1803,1803,1803
387175,1798,1798,1798
387177,1806,1806,1806
387178,1807,1807,1807
387179,1808,1808,1808
387180,1803,1803,1803
387181,1801,1801,1801
387182,1805,1805,1805
387183,1803,1803,1803
387184,1807,1807,1807
387185,1806,1806,1806
387186,1803,1803,1803
387188,1799,1799,1799
387189,1798,1798,1798
387190,1799,1799,1799
387191,1803,1803,1803
387192,1801,1801,1801
387193,1822,1822,1822
387194,1804,1804,1804
387195,1803,1803,1803
387196,1799,1799,1799
387197,1798,1798,1798
387199,1811,1811,1811
387200,1808,1808,1808
387201,1808,1808,1808
387202,1810,1810,1810
387203,1810,1810,1810
387204,1814,1814,1814
387205,1811,1811,1811
387206,1812,1812,1812
387207,1809,1809,1809
387208,1807,1807,1807
387212,1847,1847,1847
387213,1850,1850,1850
387214,1823,1823,1823
387215,1823,1823,1823
387216,1827,1827,1827
387217,1831,1831,1831
387218,1836,1836,1836
387219,1841,1841,1841
387220,1845,1845,1845
387221,1843,1843,1843
387224,1866,1866,1866
387225,1869,1869,1869
387226,1870,1870,1870
387227,1871,1871,1871
387228,1872,1872,1872
387229,1858,1858,1858
387230,1857,1857,1857
387231,1861,1861,1861
387232,1863,1863,1863
387233,1866,1866,1866
387244,1860,1860,1860
387245,1863,1863,1863
387246,1870,1870,1870
387247,1869,1869,1869
387248,1871,1871,1871
387249,1865,1865,1865
387250,1870,1870,1870
387251,1867,1867,1867
387252,1867,1867,1867
387253,1861,1861,1861
387256,1868,1868,1868
387257,1872,1872,1872
387258,1872,1872,1872
387259,1870,1870,1870
387260,1872,1872,1872
387261,1872,1872,1872
387262,1868,1868,1868
387263,1869,1869,1869
387264,1863,1863,1863
387265,1865,1865,1865
387267,1872,1872,1872
387268,1872,1872,1872
387269,1869,1869,1869
387270,1874,1874,1874
387271,1875,1875,1875
387272,1872,1872,1872
387273,1872,1872,1872
387274,1872,1872,1872
387275,1870,1870,1870
387276,1870,1870,1870
387278,1872,1872,1872
387279,1866,1866,1866
387280,1867,1867,1867
387281,1862,1862,1862
387282,1856,1856,1856
387283,1858,1858,1858
387284,1854,1854,1854
387285,1847,1847,1847
387286,1872,1872,1872
387287,1869,1869,1869
387290,1854,1854,1854
387291,1850,1850,1850
387292,1856,1856,1856
387293,1861,1861,1861
387294,1851,1851,1851
387295,1861,1861,1861
387296,1859,1859,1859
387297,1867,1867,1867
387298,1863,1863,1863
387299,1864,1864,1864
387302,1884,1884,1884
387303,1886,1886,1886
387304,1885,1885,1885
387305,1879,1879,1879
387306,1877,1877,1877
387307,1883,1883,1883
387308,1882,1882,1882
387309,1883,1883,1883
387310,1883,1883,1883
387311,1883,1883,1883
387313,1903,1903,1903
387314,1902,1902,1902
387315,1905,1905,1905
387316,1883,1883,1883
387317,1888,1888,1888
387318,1890,1890,1890
387319,1893,1893,1893
387320,1897,1897,1897
387321,1895,1895,1895
387322,1898,1898,1898
387325,1930,1930,1930
387326,1934,1934,1934
387327,1939,1939,1939
387328,1942,1942,1942
387329,1946,1946,1946
387330,1909,1909,1909
387331,1915,1915,1915
387332,1917,1917,1917
387333,1919,1919,1919
387334,1922,1922,1922
387336,1968,1968,1968
387337,1968,1968,1968
387338,1968,1968,1968
387339,1970,1970,1970
387340,1969,1969,1969
387341,1968,1968,1968
387342,1959,1959,1959
387343,1963,1963,1963
387344,1963,1963,1963
387345,1965,1965,1965
387348,1971,1971,1971
387349,1971,1971,1971
387350,1977,1977,1977
387351,1972,1972,1972
387352,1975,1975,1975
387353,1973,1973,1973
387354,1969,1969,1969
387355,1982,1982,1982
387356,1977,1977,1977
387357,1969,1969,1969
387360,1973,1973,1973
387361,1969,1969,1969
387362,1965,1965,1965
387363,1962,1962,1962
387364,1956,1956,1956
387365,1941,1941,1941
387366,1946,1946,1946
387367,1943,1943,1943
387368,1939,1939,1939
387369,1938,1938,1938
387377,1933,1933,1933
387378,1934,1934,1934
387379,1934,1934,1934
387380,1932,1932,1932
387381,1934,1934,1934
387382,1932,1932,1932
387383,1919,1919,1919
387384,1934,1934,1934
387385,1934,1934,1934
387386,1934,1934,1934
387388,1917,1917,1917
387389,1914,1914,1914
387390,1917,1917,1917
387391,1911,1911,1911
387392,1912,1912,1912
387393,1911,1911,1911
387394,1913,1913,1913
387395,1920,1920,1920
387396,1931,1931,1931
387397,1922,1922,1922
387399,1910,1910,1910
387400,1911,1911,1911
387401,1910,1910,1910
387402,1911,1911,1911
387403,1907,1907,1907
387404,1904,1904,1904
387405,1911,1911,1911
387406,1912,1912,1912
387407,1907,1907,1907
387408,1914,1914,1914
387426,1885,1885,1885
387427,1888,1888,1888
387428,1883,1883,1883
387429,1886,1886,1886
387430,1889,1889,1889
387431,1893,1893,1893
387432,1891,1891,1891
387433,1891,1891,1891
387434,1888,1888,1888
387435,1885,1885,1885
387438,1894,1894,1894
387439,1892,1892,1892
387440,1893,1893,1893
387441,1893,1893,1893
387442,1893,1893,1893
387443,1893,1893,1893
387444,1893,1893,1893
387445,1889,1889,1889
387446,1893,1893,1893
387447,1893,1893,1893
387450,1887,1887,1887
387451,1891,1891,1891
387452,1889,1889,1889
387453,1889,1889,1889
387454,1891,1891,1891
387455,1890,1890,1890
387456,1891,1891,1891
387457,1899,1899,1899
387458,1896,1896,1896
387459,1893,1893,1893
387461,1879,1879,1879
387462,1897,1897,1897
387463,1895,1895,1895
387464,1893,1893,1893
387465,1889,1889,1889
387466,1890,1890,1890
387467,1888,1888,1888
387468,1882,1882,1882
387469,1886,1886,1886
387470,1881,1881,1881
387475,1876,1876,1876
387476,1873,1873,1873
387477,1882,1882,1882
387478,1872,1872,1872
387479,1881,1881,1881
387480,1879,1879,1879
387481,1877,1877,1877
387482,1879,1879,1879
387483,1883,1883,1883
387484,1873,1873,1873
387487,1851,1851,1851
387488,1849,1849,1849
387489,1842,1842,1842
387490,1840,1840,1840
387491,1851,1851,1851
387492,1841,1841,1841
387493,1840,1840,1840
387494,1859,1859,1859
387495,1857,1857,1857
387496,1853,1853,1853
387498,1824,1824,1824
387499,1814,1814,1814
387500,1819,1819,1819
387501,1815,1815,1815
387502,1808,1808,1808
387503,1806,1806,1806
387504,1806,1806,1806
387505,1803,1803,1803
387506,1834,1834,1834
387507,1824,1824,1824
387509,1793,1793,1793
387510,1791,1791,1791
387511,1792,1792,1792
387512,1790,1790,1790
387513,1791,1791,1791
387514,1791,1791,1791
387515,1789,1789,1789
387516,1789,1789,1789
387517,1792,1792,1792
387518,1794,1794,1794
387520,1783,1783,1783
387521,1783,1783,1783
387522,1780,1780,1780
387523,1782,1782,1782
387524,1779,1779,1779
387525,1777,1777,1777
387526,1776,1776,1776
387527,1776,1776,1776
387528,1776,1776,1776
387529,1770,1770,1770
387532,1793,1793,1793
387533,1803,1803,1803
387534,1775,1775,1775
387535,1776,1776,1776
387536,1786,1786,1786
387537,1781,1781,1781
387538,1787,1787,1787
387539,1786,1786,1786
387540,1791,1791,1791
387541,1792,1792,1792
387546,1789,1789,1789
387547,1791,1791,1791
387548,1793,1793,1793
387549,1797,1797,1797
387550,1807,1807,1807
387551,1800,1800,1800
387552,1798,1798,1798
387553,1796,1796,1796
387554,1789,1789,1789
387555,1788,1788,1788
387563,1790,1790,1790
387564,1790,1790,1790
387565,1794,1794,1794
387566,1808,1808,1808
387567,1810,1810,1810
387568,1805,1805,1805
387569,1802,1802,1802
387570,1802,1802,1802
387571,1797,1797,1797
387572,1790,1790,1790
387575,1795,1795,1795
387576,1798,1798,1798
387577,1794,1794,1794
387578,1790,1790,1790
387579,1794,1794,1794
387580,1787,1787,1787
387581,1790,1790,1790
387582,1791,1791,1791
387583,1787,1787,1787
387584,1824,1824,1824
387586,1795,1795,1795
387587,1797,1797,1797
387588,1803,1803,1803
387589,1803,1803,1803
387590,1808,1808,1808
387591,1813,1813,1813
387592,1789,1789,1789
387593,1789,1789,1789
387594,1791,1791,1791
387595,1786,1786,1786
387666,1776,1776,1776
387667,1779,1779,1779
387668,1778,1778,1778
387669,1776,1776,1776
387670,1776,1776,1776
387671,1774,1774,1774
387672,1775,1775,1775
387673,1773,1773,1773
387674,1776,1776,1776
387675,1778,1778,1778
387678,1774,1774,1774
387679,1776,1776,1776
387680,1777,1777,1777
387681,1780,1780,1780
387682,1777,1777,1777
387683,1779,1779,1779
387684,1781,1781,1781
387685,1776,1776,1776
387686,1778,1778,1778
387687,1776,1776,1776
387689,1778,1778,1778
387690,1783,1783,1783
387691,1787,1787,1787
387692,1786,1786,1786
387693,1791,1791,1791
387694,1791,1791,1791
387695,1793,1793,1793
387696,1799,1799,1799
387697,1801,1801,1801
387698,1776,1776,1776
387700,1803,1803,1803
387701,1806,1806,1806
387702,1806,1806,1806
387703,1807,1807,1807
387704,1807,1807,1807
387705,1806,1806,1806
387706,1809,1809,1809
387707,1808,1808,1808
387708,1808,1808,1808
387709,1808,1808,1808
387712,1798,1798,1798
387713,1808,1808,1808
387714,1810,1810,1810
387715,1815,1815,1815
387716,1804,1804,1804
387717,1798,1798,1798
387718,1805,1805,1805
387719,1806,1806,1806
387720,1803,1803,1803
387721,1803,1803,1803
387724,1793,1793,1793
387725,1792,1792,1792
387726,1792,1792,1792
387727,1791,1791,1791
387728,1791,1791,1791
387729,1802,1802,1802
387730,1799,1799,1799
387731,1795,1795,1795
387732,1798,1798,1798
387733,1794,1794,1794
387735,1782,1782,1782
387736,1779,1779,1779
387737,1776,1776,1776
387738,1776,1776,1776
387739,1773,1773,1773
387740,1786,1786,1786
387741,1786,1786,1786
387742,1785,1785,1785
387743,1786,1786,1786
387744,1783,1783,1783
387746,1751,1751,1751
387747,1750,1750,1750
387748,1753,1753,1753
387749,1749,1749,1749
387750,1751,1751,1751
387751,1751,1751,1751
387752,1765,1765,1765
387753,1761,1761,1761
387754,1754,1754,1754
387755,1754,1754,1754
387760,1755,1755,1755
387761,1757,1757,1757
387762,1759,1759,1759
387763,1751,1751,1751
387764,1755,1755,1755
387765,1747,1747,1747
387766,1749,1749,1749
387767,1745,1745,1745
387768,1746,1746,1746
387769,1758,1758,1758
387771,1776,1776,1776
387772,1749,1749,1749
387773,1747,1747,1747
387774,1750,1750,1750
387775,1760,1760,1760
387776,1769,1769,1769
387777,1763,1763,1763
387778,1775,1775,1775
387779,1776,1776,1776
387780,1776,1776,1776
387782,1773,1773,1773
387783,1795,1795,1795
387784,1782,1782,1782
387785,1776,1776,1776
387786,1782,1782,1782
387787,1778,1778,1778
387788,1780,1780,1780
387789,1783,1783,1783
387790,1782,1782,1782
387791,1787,1787,1787
387799,1810,1810,1810
387800,1809,1809,1809
387801,1809,1809,1809
387802,1807,1807,1807
387803,1806,1806,1806
387804,1803,1803,1803
387805,1804,1804,1804
387806,1804,1804,1804
387807,1808,1808,1808
387808,1808,1808,1808
387811,1824,1824,1824
387812,1811,1811,1811
387813,1814,1814,1814
387814,1815,1815,1815
387815,1819,1819,1819
387816,1820,1820,1820
387817,1823,1823,1823
387818,1823,1823,1823
387819,1823,1823,1823
387820,1823,1823,1823
387836,1776,1776,1776
387837,1799,1799,1799
387838,1798,1798,1798
387839,1799,1799,1799
387840,1799,1799,1799
387841,1801,1801,1801
387842,1805,1805,1805
387843,1798,1798,1798
387844,1802,1802,1802
387845,1796,1796,1796
387848,1826,1826,1826
387849,1808,1808,1808
387850,1806,1806,1806
387851,1808,1808,1808
387852,1799,1799,1799
387853,1805,1805,1805
387854,1807,1807,1807
387855,1803,1803,1803
387856,1802,1802,1802
387857,1801,1801,1801
387863,1779,1779,1779
387864,1778,1778,1778
387865,1791,1791,1791
387866,1787,1787,1787
387867,1787,1787,1787
387868,1778,1778,1778
387869,1779,1779,1779
387870,1780,1780,1780
387871,1783,1783,1783
387872,1779,1779,1779
387874,1798,1798,1798
387875,1801,1801,1801
387876,1807,1807,1807
387877,1808,1808,1808
387878,1808,1808,1808
387879,1787,1787,1787
387880,1788,1788,1788
387881,1791,1791,1791
387882,1796,1796,1796
387883,1795,1795,1795
387885,1821,1821,1821
387886,1820,1820,1820
387887,1821,1821,1821
387888,1823,1823,1823
387889,1823,1823,1823
387890,1811,1811,1811
387891,1817,1817,1817
387892,1813,1813,1813
387893,1817,1817,1817
387894,1823,1823,1823
387897,1836,1836,1836
387898,1840,1840,1840
387899,1840,1840,1840
387900,1840,1840,1840
387901,1844,1844,1844
387902,1845,1845,1845
387903,1855,1855,1855
387904,1829,1829,1829
387905,1831,1831,1831
387906,1836,1836,1836
387909,1870,1870,1870
387910,1873,1873,1873
387911,1883,1883,1883
387912,1888,1888,1888
387913,1889,1889,1889
387914,1897,1897,1897
387915,1901,1901,1901
387916,1904,1904,1904
387917,1860,1860,1860
387918,1870,1870,1870
387920,1907,1907,1907
387921,1909,1909,1909
387922,1913,1913,1913
387923,1910,1910,1910
387924,1914,1914,1914
387925,1910,1910,1910
387926,1910,1910,1910
387927,1908,1908,1908
387928,1907,1907,1907
387929,1905,1905,1905
387941,1907,1907,1907
387942,1908,1908,1908
387943,1914,1914,1914
387944,1915,1915,1915
387945,1915,1915,1915
387946,1918,1918,1918
387947,1918,1918,1918
387948,1920,1920,1920
387949,1926,1926,1926
387950,1925,1925,1925
387953,1953,1953,1953
387954,1963,1963,1963
387955,1956,1956,1956
387956,1939,1939,1939
387957,1941,1941,1941
387958,1943,1943,1943
387959,1943,1943,1943
387960,1951,1951,1951
387961,1950,1950,1950
387962,1952,1952,1952
387966,1989,1989,1989
387967,1991,1991,1991
387968,1995,1995,1995
387969,1998,1998,1998
387970,2000,2000,2000
387971,1999,1999,1999
387972,1977,1977,1977
387973,1983,1983,1983
387974,1985,1985,1985
387975,1984,1984,1984
387977,2014,2014,2014
387978,2015,2015,2015
387979,2016,2016,2016
387980,2018,2018,2018
387981,2017,2017,2017
387982,2018,2018,2018
387983,2018,2018,2018
387984,2004,2004,2004
387985,2009,2009,2009
387986,2007,2007,2007
387989,2018,2018,2018
387990,2010,2010,2010
387991,2012,2012,2012
387992,2011,2011,2011
387993,2007,2007,2007
387994,2009,2009,2009
387995,2003,2003,2003
387996,2011,2011,2011
387997,2025,2025,2025
387998,2017,2017,2017
388000,2002,2002,2002
388001,2003,2003,2003
388002,2000,2000,2000
388003,1995,1995,1995
388004,1995,1995,1995
388005,1993,1993,1993
388006,1991,1991,1991
388007,1993,1993,1993
388008,1990,1990,1990
388009,1990,1990,1990
388021,2007,2007,2007
388022,2006,2006,2006
388023,2013,2013,2013
388024,2011,2011,2011
388025,2015,2015,2015
388026,2016,2016,2016
388027,2016,2016,2016
388028,2015,2015,2015
388029,2018,2018,2018
388030,2017,2017,2017
388033,2011,2011,2011
388034,2009,2009,2009
388035,2014,2014,2014
388036,2015,2015,2015
388037,2013,2013,2013
388038,2011,2011,2011
388039,2013,2013,2013
388040,2021,2021,2021
388041,2010,2010,2010
388042,2013,2013,2013
388045,2005,2005,2005
388046,2008,2008,2008
388047,2005,2005,2005
388048,2010,2010,2010
388049,2011,2011,2011
388050,2010,2010,2010
388051,2008,2008,2008
388052,2007,2007,2007
388053,2007,2007,2007
388054,2011,2011,2011
388057,2004,2004,2004
388058,2000,2000,2000
388059,2000,2000,2000
388060,2000,2000,2000
388061,1993,1993,1993
388062,2000,2000,2000
388063,1990,1990,1990
388064,2007,2007,2007
388065,2001,2001,2001
388066,2002,2002,2002
388070,1989,1989,1989
388071,1989,1989,1989
388072,1989,1989,1989
388073,1987,1987,1987
388074,1987,1987,1987
388075,1991,1991,1991
388076,1987,1987,1987
388077,1984,1984,1984
388078,1983,1983,1983
388079,1981,1981,1981
388083,1983,1983,1983
388084,1986,1986,1986
388085,1985,1985,1985
388086,1981,1981,1981
388087,1979,1979,1979
388088,1978,1978,1978
388089,1978,1978,1978
388090,1978,1978,1978
388091,1979,1979,1979
388092,1978,1978,1978
388093,1997,1997,1997
388094,1997,1997,1997
388095,2000,2000,2000
388096,1996,1996,1996
388097,1987,1987,1987
388098,1994,1994,1994
388099,1995,1995,1995
388100,1995,1995,1995
388101,1995,1995,1995
388102,1995,1995,1995
388113,2006,2006,2006
388114,2001,2001,2001
388115,1999,1999,1999
388116,1996,1996,1996
388117,1999,1999,1999
388118,1999,1999,1999
388119,2003,2003,2003
388120,2007,2007,2007
388121,2003,2003,2003
388122,2002,2002,2002
388124,1986,1986,1986
388125,1985,1985,1985
388126,1984,1984,1984
388127,1984,1984,1984
388128,2000,2000,2000
388129,1999,1999,1999
388130,1999,1999,1999
388131,1992,1992,1992
388132,1986,1986,1986
388133,1990,1990,1990
388135,1974,1974,1974
388136,1971,1971,1971
388137,1968,1968,1968
388138,1968,1968,1968
388139,1967,1967,1967
388140,1981,1981,1981
388141,1978,1978,1978
388142,1980,1980,1980
388143,1976,1976,1976
388144,1971,1971,1971
388147,1968,1968,1968
388148,1968,1968,1968
388149,1973,1973,1973
388150,1982,1982,1982
388151,1978,1978,1978
388152,1981,1981,1981
388153,1982,1982,1982
388154,1984,1984,1984
388155,1968,1968,1968
388156,1967,1967,1967
388160,1984,1984,1984
388161,1982,1982,1982
388162,1984,1984,1984
388163,1971,1971,1971
388164,1967,1967,1967
388165,1962,1962,1962
388166,1947,1947,1947
388167,1937,1937,1937
388168,1936,1936,1936
388169,1932,1932,1932
388172,1907,1907,1907
388173,1904,1904,1904
388174,1914,1914,1914
388175,1910,1910,1910
388176,1911,1911,1911
388177,1907,1907,1907
388178,1909,1909,1909
388179,1907,1907,1907
388180,1907,1907,1907
388181,1907,1907,1907
388190,1872,1872,1872
388191,1873,1873,1873
388192,1872,1872,1872
388193,1870,1870,1870
388194,1871,1871,1871
388195,1870,1870,1870
388196,1871,1871,1871
388197,1872,1872,1872
388198,1871,1871,1871
388199,1872,1872,1872
388277,1831,1831,1831
388278,1834,1834,1834
388279,1834,1834,1834
388280,1829,1829,1829
388281,1828,1828,1828
388282,1831,1831,1831
388283,1832,1832,1832
388284,1830,1830,1830
388285,1830,1830,1830
388286,1832,1832,1832
388288,1823,1823,1823
388289,1822,1822,1822
388290,1822,1822,1822
388291,1826,1826,1826
388292,1826,1826,1826
388293,1831,1831,1831
388294,1833,1833,1833
388295,1839,1839,1839
388296,1822,1822,1822
388297,1826,1826,1826
388299,1843,1843,1843
388300,1845,1845,1845
388301,1843,1843,1843
