emg_ts,raw,clean,envelope
212553,1652,1652,1652
212554,1644,1644,1644
212555,1652,1652,1652
212556,1659,1659,1659
212557,1654,1654,1654
212558,1655,1655,1655
212559,1657,1657,1657
212560,1655,1655,1655
212561,1648,1648,1648
212562,1652,1652,1652
212565,1653,1653,1653
212566,1654,1654,1654
212567,1658,1658,1658
212568,1667,1667,1667
212569,1668,1668,1668
212570,1648,1648,1648
212571,1648,1648,1648
212572,1646,1646,1646
212573,1648,1648,1648
212574,1648,1648,1648
212576,1680,1680,1680
212577,1680,1680,1680
212578,1677,1677,1677
212579,1680,1680,1680
212580,1680,1680,1680
212581,1680,1680,1680
212582,1674,1674,1674
212583,1680,1680,1680
212584,1680,1680,1680
212585,1679,1679,1679
212587,1677,1677,1677
212588,1674,1674,1674
212589,1674,1674,1674
212590,1664,1664,1664
212591,1667,1667,1667
212592,1666,1666,1666
212593,1661,1661,1661
212594,1680,1680,1680
212595,1677,1677,1677
212596,1676,1676,1676
212598,1645,1645,1645
212599,1643,1643,1643
212600,1635,1635,1635
212601,1633,1633,1633
212602,1631,1631,1631
212603,1627,1627,1627
212604,1637,1637,1637
212605,1636,1636,1636
212606,1650,1650,1650
212607,1646,1646,1646
212610,1637,1637,1637
212611,1637,1637,1637
212612,1644,1644,1644
212613,1647,1647,1647
212614,1636,1636,1636
212615,1639,1639,1639
212616,1635,1635,1635
212617,1638,1638,1638
212618,1630,1630,1630
212619,1645,1645,1645
212622,1640,1640,1640
212623,1637,1637,1637
212624,1650,1650,1650
212625,1653,1653,1653
212626,1654,1654,1654
212627,1653,1653,1653
212628,1654,1654,1654
212629,1649,1649,1649
212630,1648,1648,1648
212631,1643,1643,1643
212639,1590,1590,1590
212640,1589,1589,1589
212641,1587,1587,1587
212642,1586,1586,1586
212643,1587,1587,1587
212644,1585,1585,1585
212645,1584,1584,1584
212646,1584,1584,1584
212647,1604,1604,1604
212648,1599,1599,1599
212650,1566,1566,1566
212651,1567,1567,1567
212652,1557,1557,1557
212653,1557,1557,1557
212654,1552,1552,1552
212655,1554,1554,1554
212656,1557,1557,1557
212657,1552,1552,1552
212658,1559,1559,1559
212659,1557,1557,1557
212662,1596,1596,1596
212663,1565,1565,1565
212664,1573,1573,1573
212665,1570,1570,1570
212666,1577,1577,1577
212667,1579,1579,1579
212668,1583,1583,1583
212669,1583,1583,1583
212670,1590,1590,1590
212671,1594,1594,1594
212778,1655,1655,1655
212779,1660,1660,1660
212780,1664,1664,1664
212781,1667,1667,1667
212782,1671,1671,1671
212783,1678,1678,1678
212784,1681,1681,1681
212785,1681,1681,1681
212786,1649,1649,1649
212787,1653,1653,1653
212789,1677,1677,1677
212790,1677,1677,1677
212791,1675,1675,1675
212792,1670,1670,1670
212793,1671,1671,1671
212794,1662,1662,1662
212795,1661,1661,1661
212796,1653,1653,1653
212797,1651,1651,1651
212798,1680,1680,1680
212800,1647,1647,1647
212801,1643,1643,1643
212802,1644,1644,1644
212803,1643,1643,1643
212804,1648,1648,1648
212805,1650,1650,1650
212806,1648,1648,1648
212807,1653,1653,1653
212808,1658,1658,1658
212809,1659,1659,1659
212811,1646,1646,1646
212812,1654,1654,1654
212813,1651,1651,1651
212814,1653,1653,1653
212815,1655,1655,1655
212816,1650,1650,1650
212817,1651,1651,1651
212818,1649,1649,1649
212819,1648,1648,1648
212820,1648,1648,1648
212823,1647,1647,1647
212824,1648,1648,1648
212825,1643,1643,1643
212826,1642,1642,1642
212827,1644,1644,1644
212828,1647,1647,1647
212829,1643,1643,1643
212830,1647,1647,1647
212831,1648,1648,1648
212832,1642,1642,1642
212835,1622,1622,1622
212836,1626,1626,1626
212837,1630,1630,1630
212838,1637,1637,1637
212839,1637,1637,1637
212840,1637,1637,1637
212841,1633,1633,1633
212842,1629,1629,1629
212843,1628,1628,1628
212844,1623,1623,1623
212846,1664,1664,1664
212847,1655,1655,1655
212848,1659,1659,1659
212849,1651,1651,1651
212850,1651,1651,1651
212851,1653,1653,1653
212852,1648,1648,1648
212853,1653,1653,1653
212854,1658,1658,1658
212855,1659,1659,1659
212859,1650,1650,1650
212860,1648,1648,1648
212861,1651,1651,1651
212862,1650,1650,1650
212863,1646,1646,1646
212864,1648,1648,1648
212865,1653,1653,1653
212866,1648,1648,1648
212867,1655,1655,1655
212868,1648,1648,1648
212871,1638,1638,1638
212872,1648,1648,1648
212873,1648,1648,1648
212874,1648,1648,1648
212875,1646,1646,1646
212876,1646,1646,1646
212877,1640,1640,1640
212878,1641,1641,1641
212879,1636,1636,1636
212880,1637,1637,1637
212884,1637,1637,1637
212885,1634,1634,1634
212886,1633,1633,1633
212887,1629,1629,1629
212888,1648,1648,1648
212889,1644,1644,1644
212890,1639,1639,1639
212891,1637,1637,1637
212892,1639,1639,1639
212893,1639,1639,1639
212896,1634,1634,1634
212897,1637,1637,1637
212898,1637,1637,1637
212899,1638,1638,1638
212900,1637,1637,1637
212901,1643,1643,1643
212902,1628,1628,1628
212903,1629,1629,1629
212904,1632,1632,1632
212905,1632,1632,1632
212913,1652,1652,1652
212914,1658,1658,1658
212915,1641,1641,1641
212916,1642,1642,1642
212917,1645,1645,1645
212918,1642,1642,1642
212919,1643,1643,1643
212920,1643,1643,1643
212921,1647,1647,1647
212922,1649,1649,1649
212925,1685,1685,1685
212926,1687,1687,1687
212927,1693,1693,1693
212928,1693,1693,1693
212929,1696,1696,1696
212930,1664,1664,1664
212931,1676,1676,1676
212932,1677,1677,1677
212933,1680,1680,1680
212934,1683,1683,1683
212936,1712,1712,1712
212937,1715,1715,1715
212938,1721,1721,1721
212939,1721,1721,1721
212940,1724,1724,1724
212941,1727,1727,1727
212942,1702,1702,1702
212943,1711,1711,1711
212944,1711,1711,1711
212945,1712,1712,1712
212947,1719,1719,1719
212948,1721,1721,1721
212949,1726,1726,1726
212950,1730,1730,1730
212951,1730,1730,1730
212952,1728,1728,1728
212953,1731,1731,1731
212954,1719,1719,1719
212955,1721,1721,1721
212956,1718,1718,1718
212966,1743,1743,1743
212967,1733,1733,1733
212968,1739,1739,1739
212969,1735,1735,1735
212970,1737,1737,1737
212971,1749,1749,1749
212972,1743,1743,1743
212973,1744,1744,1744
212974,1741,1741,1741
212975,1740,1740,1740
212977,1738,1738,1738
212978,1731,1731,1731
212979,1731,1731,1731
212980,1735,1735,1735
212981,1733,1733,1733
212982,1728,1728,1728
212983,1730,1730,1730
212984,1734,1734,1734
212985,1737,1737,1737
212986,1729,1729,1729
212988,1730,1730,1730
212989,1729,1729,1729
212990,1729,1729,1729
212991,1731,1731,1731
212992,1737,1737,1737
212993,1739,1739,1739
212994,1730,1730,1730
212995,1729,1729,1729
212996,1730,1730,1730
212997,1729,1729,1729
213003,1707,1707,1707
213004,1706,1706,1706
213005,1707,1707,1707
213006,1719,1719,1719
213007,1717,1717,1717
213008,1713,1713,1713
213009,1715,1715,1715
213010,1712,1712,1712
213011,1710,1710,1710
213012,1707,1707,1707
213016,1714,1714,1714
213017,1712,1712,1712
213018,1713,1713,1713
213019,1717,1717,1717
213020,1717,1717,1717
213021,1719,1719,1719
213022,1709,1709,1709
213023,1713,1713,1713
213024,1709,1709,1709
213025,1714,1714,1714
213027,1739,1739,1739
213028,1742,1742,1742
213029,1744,1744,1744
213030,1743,1743,1743
213031,1744,1744,1744
213032,1743,1743,1743
213033,1741,1741,1741
213034,1729,1729,1729
213035,1731,1731,1731
213036,1739,1739,1739
213038,1734,1734,1734
213039,1735,1735,1735
213040,1733,1733,1733
213041,1731,1731,1731
213042,1727,1727,1727
213043,1727,1727,1727
213044,1723,1723,1723
213045,1746,1746,1746
213046,1741,1741,1741
213047,1743,1743,1743
213049,1712,1712,1712
213050,1713,1713,1713
213051,1712,1712,1712
213052,1712,1712,1712
213053,1711,1711,1711
213054,1709,1709,1709
213055,1709,1709,1709
213056,1700,1700,1700
213057,1698,1698,1698
213058,1712,1712,1712
213061,1693,1693,1693
213062,1693,1693,1693
213063,1700,1700,1700
213064,1700,1700,1700
213065,1710,1710,1710
213066,1712,1712,1712
213067,1712,1712,1712
213068,1712,1712,1712
213069,1722,1722,1722
213070,1717,1717,1717
213076,1741,1741,1741
213077,1739,1739,1739
213078,1735,1735,1735
213079,1738,1738,1738
213080,1731,1731,1731
213081,1739,1739,1739
213082,1744,1744,1744
213083,1741,1741,1741
213084,1744,1744,1744
213085,1741,1741,1741
213093,1757,1757,1757
213094,1754,1754,1754
213095,1741,1741,1741
213096,1744,1744,1744
213097,1744,1744,1744
213098,1747,1747,1747
213099,1754,1754,1754
213100,1751,1751,1751
213101,1754,1754,1754
213102,1749,1749,1749
213105,1776,1776,1776
213106,1779,1779,1779
213107,1780,1780,1780
213108,1786,1786,1786
213109,1787,1787,1787
213110,1770,1770,1770
213111,1774,1774,1774
213112,1775,1775,1775
213113,1791,1791,1791
213114,1781,1781,1781
213117,1808,1808,1808
213118,1807,1807,1807
213119,1808,1808,1808
213120,1808,1808,1808
213121,1809,1809,1809
213122,1806,1806,1806
213123,1808,1808,1808
213124,1798,1798,1798
213125,1799,1799,1799
213126,1807,1807,1807
213128,1809,1809,1809
213129,1810,1810,1810
213130,1808,1808,1808
213131,1813,1813,1813
213132,1808,1808,1808
213133,1809,1809,1809
213134,1810,1810,1810
213135,1809,1809,1809
213136,1814,1814,1814
213137,1808,1808,1808
213139,1818,1818,1818
213140,1813,1813,1813
213141,1818,1818,1818
213142,1811,1811,1811
213143,1815,1815,1815
213144,1811,1811,1811
213145,1814,1814,1814
213146,1811,1811,1811
213147,1813,1813,1813
213148,1813,1813,1813
213153,1793,1793,1793
213154,1791,1791,1791
213155,1783,1783,1783
213156,1808,1808,1808
213157,1805,1805,1805
213158,1805,1805,1805
213159,1802,1802,1802
213160,1807,1807,1807
213161,1802,1802,1802
213162,1798,1798,1798
213171,1786,1786,1786
213172,1790,1790,1790
213173,1787,1787,1787
213174,1785,1785,1785
213175,1778,1778,1778
213176,1779,1779,1779
213177,1771,1771,1771
213178,1770,1770,1770
213179,1757,1757,1757
213180,1751,1751,1751
213220,1691,1691,1691
213221,1691,1691,1691
213222,1697,1697,1697
213223,1686,1686,1686
213224,1693,1693,1693
213225,1690,1690,1690
213226,1695,1695,1695
213227,1690,1690,1690
213228,1687,1687,1687
213229,1695,1695,1695
213232,1671,1671,1671
213233,1670,1670,1670
213234,1666,1666,1666
213235,1677,1677,1677
213236,1677,1677,1677
213237,1677,1677,1677
213238,1674,1674,1674
213239,1673,1673,1673
213240,1669,1669,1669
213241,1669,1669,1669
213243,1648,1648,1648
213244,1648,1648,1648
213245,1647,1647,1647
213246,1667,1667,1667
213247,1670,1670,1670
213248,1669,1669,1669
213249,1666,1666,1666
213250,1663,1663,1663
213251,1658,1658,1658
213252,1653,1653,1653
213254,1632,1632,1632
213255,1635,1635,1635
213256,1626,1626,1626
213257,1627,1627,1627
213258,1646,1646,1646
213259,1645,1645,1645
213260,1645,1645,1645
213261,1639,1639,1639
213262,1638,1638,1638
213263,1637,1637,1637
213269,1615,1615,1615
213270,1611,1611,1611
213271,1604,1604,1604
213272,1601,1601,1601
213273,1591,1591,1591
213274,1587,1587,1587
213275,1581,1581,1581
213276,1578,1578,1578
213277,1574,1574,1574
213278,1616,1616,1616
213283,1569,1569,1569
213284,1570,1570,1570
213285,1568,1568,1568
213286,1570,1570,1570
213287,1569,1569,1569
213288,1571,1571,1571
213289,1569,1569,1569
213290,1571,1571,1571
213291,1569,1569,1569
213292,1568,1568,1568
213294,1553,1553,1553
213295,1535,1535,1535
213296,1535,1535,1535
213297,1535,1535,1535
213298,1562,1562,1562
213299,1563,1563,1563
213300,1563,1563,1563
213301,1559,1559,1559
213302,1553,1553,1553
213303,1535,1535,1535
213305,1535,1535,1535
213306,1557,1557,1557
213307,1557,1557,1557
213308,1556,1556,1556
213309,1557,1557,1557
213310,1535,1535,1535
213311,1535,1535,1535
213312,1555,1555,1555
213313,1557,1557,1557
213314,1554,1554,1554
213316,1535,1535,1535
213317,1534,1534,1534
213318,1533,1533,1533
213319,1530,1530,1530
213320,1531,1531,1531
213321,1526,1526,1526
213322,1535,1535,1535
213323,1535,1535,1535
213324,1535,1535,1535
213325,1535,1535,1535
213328,1522,1522,1522
213329,1520,1520,1520
213330,1525,1525,1525
213331,1520,1520,1520
213332,1520,1520,1520
213333,1518,1518,1518
213334,1519,1519,1519
213335,1522,1522,1522
213336,1522,1522,1522
213337,1523,1523,1523
213340,1521,1521,1521
213341,1520,1520,1520
213342,1520,1520,1520
213343,1520,1520,1520
213344,1520,1520,1520
213345,1520,1520,1520
213346,1520,1520,1520
213347,1518,1518,1518
213348,1520,1520,1520
213349,1518,1518,1518
213357,1522,1522,1522
213358,1520,1520,1520
213359,1520,1520,1520
213360,1519,1519,1519
213361,1520,1520,1520
213362,1517,1517,1517
213363,1521,1521,1521
213364,1522,1522,1522
213365,1526,1526,1526
213366,1521,1521,1521
213368,1525,1525,1525
213369,1522,1522,1522
213370,1525,1525,1525
213371,1518,1518,1518
213372,1525,1525,1525
213373,1521,1521,1521
213374,1520,1520,1520
213375,1520,1520,1520
213376,1526,1526,1526
213377,1520,1520,1520
213383,1574,1574,1574
213384,1574,1574,1574
213385,1521,1521,1521
213386,1531,1531,1531
213387,1535,1535,1535
213388,1535,1535,1535
213389,1558,1558,1558
213390,1559,1559,1559
213391,1567,1567,1567
213392,1572,1572,1572
213499,1641,1641,1641
213500,1645,1645,1645
213501,1645,1645,1645
213502,1639,1639,1639
213503,1651,1651,1651
213504,1650,1650,1650
213505,1653,1653,1653
213506,1655,1655,1655
213507,1648,1648,1648
213508,1639,1639,1639
213510,1649,1649,1649
213511,1650,1650,1650
213512,1649,1649,1649
213513,1648,1648,1648
213514,1648,1648,1648
213515,1652,1652,1652
213516,1650,1650,1650
213517,1648,1648,1648
213518,1648,1648,1648
213519,1648,1648,1648
213521,1670,1670,1670
213522,1649,1649,1649
213523,1653,1653,1653
213524,1655,1655,1655
213525,1663,1663,1663
213526,1663,1663,1663
213527,1664,1664,1664
213528,1664,1664,1664
213529,1666,1666,1666
213530,1689,1689,1689
213532,1648,1648,1648
213533,1639,1639,1639
213534,1665,1665,1665
213535,1663,1663,1663
213536,1662,1662,1662
213537,1658,1658,1658
213538,1651,1651,1651
213539,1648,1648,1648
213540,1648,1648,1648
213541,1648,1648,1648
213544,1670,1670,1670
213545,1664,1664,1664
213546,1664,1664,1664
213547,1648,1648,1648
213548,1654,1654,1654
213549,1659,1659,1659
213550,1658,1658,1658
213551,1658,1658,1658
213552,1659,1659,1659
213553,1665,1665,1665
213556,1666,1666,1666
213557,1664,1664,1664
213558,1663,1663,1663
213559,1664,1664,1664
213560,1669,1669,1669
213561,1676,1676,1676
213562,1667,1667,1667
213563,1665,1665,1665
213564,1666,1666,1666
213565,1665,1665,1665
213567,1690,1690,1690
213568,1693,1693,1693
213569,1695,1695,1695
213570,1703,1703,1703
213571,1706,1706,1706
213572,1707,1707,1707
213573,1711,1711,1711
213574,1680,1680,1680
213575,1686,1686,1686
213576,1682,1682,1682
213580,1701,1701,1701
213581,1700,1700,1700
213582,1695,1695,1695
213583,1691,1691,1691
213584,1690,1690,1690
213585,1683,1683,1683
213586,1680,1680,1680
213587,1678,1678,1678
213588,1675,1675,1675
213589,1710,1710,1710
213592,1677,1677,1677
213593,1669,1669,1669
213594,1673,1673,1673
213595,1666,1666,1666
213596,1665,1665,1665
213597,1663,1663,1663
213598,1660,1660,1660
213599,1661,1661,1661
213600,1665,1665,1665
213601,1664,1664,1664
213604,1699,1699,1699
213605,1700,1700,1700
213606,1700,1700,1700
213607,1699,1699,1699
213608,1690,1690,1690
213609,1690,1690,1690
213610,1695,1695,1695
213611,1696,1696,1696
213612,1700,1700,1700
213613,1698,1698,1698
213615,1689,1689,1689
213616,1691,1691,1691
213617,1693,1693,1693
213618,1698,1698,1698
213619,1697,1697,1697
213620,1696,1696,1696
213621,1692,1692,1692
213622,1695,1695,1695
213623,1690,1690,1690
213624,1691,1691,1691
213626,1714,1714,1714
213627,1719,1719,1719
213628,1719,1719,1719
213629,1730,1730,1730
213630,1728,1728,1728
213631,1728,1728,1728
213632,1706,1706,1706
213633,1707,1707,1707
213634,1712,1712,1712
213635,1714,1714,1714
213637,1740,1740,1740
213638,1746,1746,1746
213639,1744,1744,1744
213640,1745,1745,1745
213641,1744,1744,1744
213642,1745,1745,1745
213643,1750,1750,1750
213644,1733,1733,1733
213645,1739,1739,1739
213646,1745,1745,1745
213649,1744,1744,1744
213650,1744,1744,1744
213651,1744,1744,1744
213652,1744,1744,1744
213653,1744,1744,1744
213654,1746,1746,1746
213655,1745,1745,1745
213656,1748,1748,1748
213657,1758,1758,1758
213658,1746,1746,1746
213660,1759,1759,1759
213661,1758,1758,1758
213662,1759,1759,1759
213663,1758,1758,1758
213664,1761,1761,1761
213665,1763,1763,1763
213666,1763,1763,1763
213667,1764,1764,1764
213668,1763,1763,1763
213669,1764,1764,1764
213679,1745,1745,1745
213680,1754,1754,1754
213681,1760,1760,1760
213682,1761,1761,1761
213683,1758,1758,1758
213684,1763,1763,1763
213685,1761,1761,1761
213686,1776,1776,1776
213687,1755,1755,1755
213688,1755,1755,1755
213690,1762,1762,1762
213691,1771,1771,1771
213692,1773,1773,1773
213693,1773,1773,1773
213694,1775,1775,1775
213695,1769,1769,1769
213696,1773,1773,1773
213697,1770,1770,1770
213698,1770,1770,1770
213699,1770,1770,1770
213701,1791,1791,1791
213702,1763,1763,1763
213703,1762,1762,1762
213704,1761,1761,1761
213705,1763,1763,1763
213706,1762,1762,1762
213707,1763,1763,1763
213708,1776,1776,1776
213709,1782,1782,1782
213710,1790,1790,1790
213795,1712,1712,1712
213796,1712,1712,1712
213797,1711,1711,1711
213798,1712,1712,1712
213799,1712,1712,1712
213800,1721,1721,1721
213801,1712,1712,1712
213802,1712,1712,1712
213803,1712,1712,1712
213804,1713,1713,1713
213806,1709,1709,1709
213807,1698,1698,1698
213808,1706,1706,1706
213809,1704,1704,1704
213810,1710,1710,1710
213811,1711,1711,1711
213812,1711,1711,1711
213813,1712,1712,1712
213814,1712,1712,1712
213815,1711,1711,1711
213817,1710,1710,1710
213818,1705,1705,1705
213819,1699,1699,1699
213820,1695,1695,1695
213821,1693,1693,1693
213822,1691,1691,1691
213823,1684,1684,1684
213824,1687,1687,1687
213825,1712,1712,1712
213826,1710,1710,1710
213834,1719,1719,1719
213835,1722,1722,1722
213836,1724,1724,1724
213837,1693,1693,1693
213838,1705,1705,1705
213839,1701,1701,1701
213840,1706,1706,1706
213841,1705,1705,1705
213842,1712,1712,1712
213843,1714,1714,1714
213845,1728,1728,1728
213846,1728,1728,1728
213847,1730,1730,1730
213848,1725,1725,1725
213849,1728,1728,1728
213850,1719,1719,1719
213851,1725,1725,1725
213852,1726,1726,1726
213853,1727,1727,1727
213854,1734,1734,1734
213856,1726,1726,1726
213857,1725,1725,1725
213858,1722,1722,1722
213859,1726,1726,1726
213860,1723,1723,1723
213861,1722,1722,1722
213862,1722,1722,1722
213863,1719,1719,1719
213864,1723,1723,1723
213865,1724,1724,1724
213867,1713,1713,1713
213868,1712,1712,1712
213869,1712,1712,1712
213870,1707,1707,1707
213871,1705,1705,1705
213872,1702,1702,1702
213873,1694,1694,1694
213874,1719,1719,1719
213875,1717,1717,1717
213876,1714,1714,1714
213879,1681,1681,1681
213880,1687,1687,1687
213881,1683,1683,1683
213882,1689,1689,1689
213883,1683,1683,1683
213884,1680,1680,1680
213885,1680,1680,1680
213886,1680,1680,1680
213887,1694,1694,1694
213888,1685,1685,1685
213896,1651,1651,1651
213897,1658,1658,1658
213898,1653,1653,1653
213899,1649,1649,1649
213900,1648,1648,1648
213901,1650,1650,1650
213902,1661,1661,1661
213903,1663,1663,1663
213904,1657,1657,1657
213905,1657,1657,1657
213907,1644,1644,1644
213908,1641,1641,1641
213909,1642,1642,1642
213910,1656,1656,1656
213911,1650,1650,1650
213912,1653,1653,1653
213913,1660,1660,1660
213914,1649,1649,1649
213915,1648,1648,1648
213916,1653,1653,1653
213918,1668,1668,1668
213919,1667,1667,1667
213920,1667,1667,1667
213921,1664,1664,1664
213922,1666,1666,1666
213923,1660,1660,1660
213924,1659,1659,1659
213925,1660,1660,1660
213926,1669,1669,1669
213927,1670,1670,1670
213929,1649,1649,1649
213930,1651,1651,1651
213931,1647,1647,1647
213932,1648,1648,1648
213933,1646,1646,1646
213934,1643,1643,1643
213935,1639,1639,1639
213936,1638,1638,1638
213937,1638,1638,1638
213938,1653,1653,1653
213941,1638,1638,1638
213942,1642,1642,1642
213943,1638,1638,1638
213944,1634,1634,1634
213945,1642,1642,1642
213946,1641,1641,1641
213947,1647,1647,1647
213948,1649,1649,1649
213949,1647,1647,1647
213950,1654,1654,1654
213953,1703,1703,1703
213954,1710,1710,1710
213955,1712,1712,1712
213956,1666,1666,1666
213957,1674,1674,1674
213958,1678,1678,1678
213959,1679,1679,1679
213960,1682,1682,1682
213961,1687,1687,1687
213962,1695,1695,1695
213964,1718,1718,1718
213965,1720,1720,1720
213966,1719,1719,1719
213967,1715,1715,1715
213968,1712,1712,1712
213969,1717,1717,1717
213970,1712,1712,1712
213971,1718,1718,1718
213972,1717,1717,1717
213973,1723,1723,1723
213975,1691,1691,1691
213976,1695,1695,1695
213977,1693,1693,1693
213978,1694,1694,1694
213979,1687,1687,1687
213980,1711,1711,1711
213981,1689,1689,1689
213982,1703,1703,1703
213983,1700,1700,1700
213984,1694,1694,1694
213987,1695,1695,1695
213988,1697,1697,1697
213989,1694,1694,1694
213990,1700,1700,1700
213991,1703,1703,1703
213992,1702,1702,1702
213993,1701,1701,1701
213994,1693,1693,1693
213995,1694,1694,1694
213996,1692,1692,1692
214001,1707,1707,1707
214002,1709,1709,1709
214003,1712,1712,1712
214004,1712,1712,1712
214005,1706,1706,1706
214006,1715,1715,1715
214007,1713,1713,1713
214008,1717,1717,1717
214009,1716,1716,1716
214010,1713,1713,1713
214012,1690,1690,1690
214013,1698,1698,1698
214014,1686,1686,1686
214015,1701,1701,1701
214016,1698,1698,1698
214017,1712,1712,1712
214018,1707,1707,1707
214019,1707,1707,1707
214020,1705,1705,1705
214021,1702,1702,1702
214029,1669,1669,1669
214030,1669,1669,1669
214031,1666,1666,1666
214032,1685,1685,1685
214033,1668,1668,1668
214034,1668,1668,1668
214035,1669,1669,1669
214036,1676,1676,1676
214037,1678,1678,1678
214038,1674,1674,1674
214041,1707,1707,1707
214042,1690,1690,1690
214043,1690,1690,1690
214044,1696,1696,1696
214045,1695,1695,1695
214046,1697,1697,1697
214047,1702,1702,1702
214048,1700,1700,1700
214049,1706,1706,1706
214050,1711,1711,1711
214052,1708,1708,1708
214053,1712,1712,1712
214054,1711,1711,1711
214055,1710,1710,1710
214056,1711,1711,1711
214057,1711,1711,1711
214058,1711,1711,1711
214059,1710,1710,1710
214060,1706,1706,1706
214061,1709,1709,1709
214063,1732,1732,1732
214064,1728,1728,1728
214065,1734,1734,1734
214066,1712,1712,1712
214067,1715,1715,1715
214068,1722,1722,1722
214069,1724,1724,1724
214070,1720,1720,1720
214071,1724,1724,1724
214072,1723,1723,1723
214075,1730,1730,1730
214076,1736,1736,1736
214077,1729,1729,1729
214078,1733,1733,1733
214079,1735,1735,1735
214080,1728,1728,1728
214081,1738,1738,1738
214082,1735,1735,1735
214083,1732,1732,1732
214084,1731,1731,1731
214089,1754,1754,1754
214090,1757,1757,1757
214091,1760,1760,1760
214092,1761,1761,1761
214093,1761,1761,1761
214094,1759,1759,1759
214095,1756,1756,1756
214096,1756,1756,1756
214097,1759,1759,1759
214098,1754,1754,1754
214101,1776,1776,1776
214102,1757,1757,1757
214103,1765,1765,1765
214104,1763,1763,1763
214105,1780,1780,1780
214106,1768,1768,1768
214107,1764,1764,1764
214108,1768,1768,1768
214109,1772,1772,1772
214110,1771,1771,1771
214112,1776,1776,1776
214113,1776,1776,1776
214114,1776,1776,1776
214115,1776,1776,1776
214116,1778,1778,1778
214117,1782,1782,1782
214118,1777,1777,1777
214119,1778,1778,1778
214120,1779,1779,1779
214121,1776,1776,1776
214124,1768,1768,1768
214125,1764,1764,1764
214126,1762,1762,1762
214127,1770,1770,1770
214128,1770,1770,1770
214129,1776,1776,1776
214130,1767,1767,1767
214131,1774,1774,1774
214132,1767,1767,1767
214133,1763,1763,1763
214136,1787,1787,1787
214137,1790,1790,1790
214138,1792,1792,1792
214139,1792,1792,1792
214140,1791,1791,1791
214141,1788,1788,1788
214142,1773,1773,1773
214143,1772,1772,1772
214144,1779,1779,1779
214145,1781,1781,1781
214147,1771,1771,1771
214148,1776,1776,1776
214149,1776,1776,1776
214150,1770,1770,1770
214151,1770,1770,1770
214152,1773,1773,1773
214153,1766,1766,1766
214154,1783,1783,1783
214155,1778,1778,1778
214156,1777,1777,1777
214158,1764,1764,1764
214159,1765,1765,1765
214160,1761,1761,1761
214161,1758,1758,1758
214162,1757,1757,1757
214163,1752,1752,1752
214164,1754,1754,1754
214165,1748,1748,1748
214166,1771,1771,1771
214167,1770,1770,1770
214169,1751,1751,1751
214170,1753,1753,1753
214171,1754,1754,1754
214172,1753,1753,1753
214173,1756,1756,1756
214174,1755,1755,1755
214175,1758,1758,1758
214176,1760,1760,1760
214177,1769,1769,1769
214178,1751,1751,1751
214183,1821,1821,1821
214184,1824,1824,1824
214185,1787,1787,1787
214186,1789,1789,1789
214187,1790,1790,1790
214188,1792,1792,1792
214189,1797,1797,1797
214190,1808,1808,1808
214191,1813,1813,1813
214192,1818,1818,1818
214197,1840,1840,1840
214198,1840,1840,1840
214199,1840,1840,1840
214200,1841,1841,1841
214201,1845,1845,1845
214202,1843,1843,1843
214203,1837,1837,1837
214204,1833,1833,1833
214205,1840,1840,1840
214206,1840,1840,1840
214214,1872,1872,1872
214215,1875,1875,1875
214216,1874,1874,1874
214217,1849,1849,1849
214218,1855,1855,1855
214219,1857,1857,1857
214220,1857,1857,1857
214221,1857,1857,1857
214222,1865,1865,1865
214223,1871,1871,1871
214225,1883,1883,1883
214226,1886,1886,1886
214227,1887,1887,1887
214228,1888,1888,1888
214229,1893,1893,1893
214230,1879,1879,1879
214231,1879,1879,1879
214232,1882,1882,1882
214233,1885,1885,1885
214234,1883,1883,1883
214237,1917,1917,1917
214238,1916,1916,1916
214239,1923,1923,1923
214240,1920,1920,1920
214241,1927,1927,1927
214242,1933,1933,1933
214243,1904,1904,1904
214244,1903,1903,1903
214245,1908,1908,1908
214246,1910,1910,1910
214249,1918,1918,1918
214250,1909,1909,1909
214251,1909,1909,1909
214252,1906,1906,1906
214253,1914,1914,1914
214254,1920,1920,1920
214255,1917,1917,1917
214256,1923,1923,1923
214257,1925,1925,1925
214258,1920,1920,1920
214263,1914,1914,1914
214264,1920,1920,1920
214265,1919,1919,1919
214266,1920,1920,1920
214267,1921,1921,1921
214268,1920,1920,1920
214269,1915,1915,1915
214270,1920,1920,1920
214271,1920,1920,1920
214272,1914,1914,1914
214280,1910,1910,1910
214281,1904,1904,1904
214282,1905,1905,1905
214283,1904,1904,1904
214284,1897,1897,1897
214285,1894,1894,1894
214286,1895,1895,1895
214287,1894,1894,1894
214288,1892,1892,1892
214289,1894,1894,1894
214293,1886,1886,1886
214294,1889,1889,1889
214295,1887,1887,1887
214296,1891,1891,1891
214297,1890,1890,1890
214298,1890,1890,1890
214299,1893,1893,1893
214300,1889,1889,1889
214301,1890,1890,1890
214302,1887,1887,1887
214305,1876,1876,1876
214306,1877,1877,1877
214307,1873,1873,1873
214308,1877,1877,1877
214309,1878,1878,1878
214310,1879,1879,1879
214311,1879,1879,1879
214312,1874,1874,1874
214313,1879,1879,1879
214314,1878,1878,1878
214321,1887,1887,1887
214322,1889,1889,1889
214323,1891,1891,1891
214324,1895,1895,1895
214325,1894,1894,1894
214326,1898,1898,1898
214327,1899,1899,1899
214328,1903,1903,1903
214329,1889,1889,1889
214330,1901,1901,1901
214333,1903,1903,1903
214334,1897,1897,1897
214335,1903,1903,1903
214336,1898,1898,1898
214337,1903,1903,1903
214338,1898,1898,1898
214339,1899,1899,1899
214340,1902,1902,1902
214341,1902,1902,1902
214342,1901,1901,1901
214344,1874,1874,1874
214345,1869,1869,1869
214346,1868,1868,1868
214347,1861,1861,1861
214348,1891,1891,1891
214349,1890,1890,1890
214350,1886,1886,1886
214351,1882,1882,1882
214352,1881,1881,1881
214353,1875,1875,1875
214355,1842,1842,1842
214356,1843,1843,1843
214357,1837,1837,1837
214358,1833,1833,1833
214359,1831,1831,1831
214360,1857,1857,1857
214361,1855,1855,1855
214362,1851,1851,1851
214363,1853,1853,1853
214364,1845,1845,1845
214366,1794,1794,1794
214367,1797,1797,1797
214368,1794,1794,1794
214369,1797,1797,1797
214370,1802,1802,1802
214371,1803,1803,1803
214372,1821,1821,1821
214373,1820,1820,1820
214374,1807,1807,1807
214375,1802,1802,1802
214378,1803,1803,1803
214379,1803,1803,1803
214380,1799,1799,1799
214381,1797,1797,1797
214382,1792,1792,1792
214383,1792,1792,1792
214384,1788,1788,1788
214385,1802,1802,1802
214386,1808,1808,1808
214387,1803,1803,1803
214390,1780,1780,1780
214391,1776,1776,1776
214392,1772,1772,1772
214393,1772,1772,1772
214394,1766,1766,1766
214395,1766,1766,1766
214396,1761,1761,1761
214397,1764,1764,1764
214398,1748,1748,1748
214399,1747,1747,1747
214408,1726,1726,1726
214409,1730,1730,1730
214410,1735,1735,1735
214411,1728,1728,1728
214412,1715,1715,1715
214413,1725,1725,1725
214414,1712,1712,1712
214415,1712,1712,1712
214416,1735,1735,1735
214417,1734,1734,1734
214420,1712,1712,1712
214421,1713,1713,1713
214422,1717,1717,1717
214423,1715,1715,1715
214424,1719,1719,1719
214425,1717,1717,1717
214426,1718,1718,1718
214427,1714,1714,1714
214428,1714,1714,1714
214429,1712,1712,1712
214431,1687,1687,1687
214432,1712,1712,1712
214433,1709,1709,1709
214434,1706,1706,1706
214435,1702,1702,1702
214436,1700,1700,1700
214437,1695,1695,1695
214438,1697,1697,1697
214439,1691,1691,1691
214440,1687,1687,1687
214443,1671,1671,1671
214444,1674,1674,1674
214445,1687,1687,1687
214446,1686,1686,1686
214447,1694,1694,1694
214448,1682,1682,1682
214449,1680,1680,1680
214450,1680,1680,1680
214451,1680,1680,1680
214452,1674,1674,1674
214454,1699,1699,1699
214455,1704,1704,1704
214456,1711,1711,1711
214457,1715,1715,1715
214458,1712,1712,1712
214459,1684,1684,1684
214460,1691,1691,1691
214461,1687,1687,1687
214462,1696,1696,1696
214463,1696,1696,1696
214471,1735,1735,1735
214472,1739,1739,1739
214473,1729,1729,1729
214474,1731,1731,1731
214475,1735,1735,1735
214476,1741,1741,1741
214477,1734,1734,1734
214478,1739,1739,1739
214479,1739,1739,1739
214480,1739,1739,1739
214482,1738,1738,1738
214483,1744,1744,1744
214484,1722,1722,1722
214485,1731,1731,1731
214486,1728,1728,1728
214487,1733,1733,1733
214488,1735,1735,1735
214489,1739,1739,1739
214490,1743,1743,1743
214491,1741,1741,1741
214493,1731,1731,1731
214494,1736,1736,1736
214495,1731,1731,1731
214496,1731,1731,1731
214497,1744,1744,1744
214498,1742,1742,1742
214499,1744,1744,1744
214500,1744,1744,1744
214501,1741,1741,1741
214502,1738,1738,1738
214509,1744,1744,1744
214510,1747,1747,1747
214511,1749,1749,1749
214512,1745,1745,1745
214513,1754,1754,1754
214514,1753,1753,1753
214515,1761,1761,1761
214516,1757,1757,1757
214517,1739,1739,1739
214518,1739,1739,1739
214521,1785,1785,1785
214522,1761,1761,1761
214523,1763,1763,1763
214524,1770,1770,1770
214525,1769,1769,1769
214526,1776,1776,1776
214527,1775,1775,1775
214528,1776,1776,1776
214529,1782,1782,1782
214530,1782,1782,1782
214533,1799,1799,1799
214534,1801,1801,1801
214535,1801,1801,1801
214536,1790,1790,1790
214537,1795,1795,1795
214538,1802,1802,1802
214539,1803,1803,1803
214540,1800,1800,1800
214541,1798,1798,1798
214542,1795,1795,1795
214544,1808,1808,1808
214545,1808,1808,1808
214546,1808,1808,1808
214547,1809,1809,1809
214548,1805,1805,1805
214549,1799,1799,1799
214550,1801,1801,1801
214551,1807,1807,1807
214552,1802,1802,1802
214553,1804,1804,1804
214555,1821,1821,1821
214556,1819,1819,1819
214557,1822,1822,1822
214558,1825,1825,1825
214559,1825,1825,1825
214560,1811,1811,1811
214561,1819,1819,1819
214562,1818,1818,1818
214563,1823,1823,1823
214564,1819,1819,1819
214567,1843,1843,1843
214568,1849,1849,1849
214569,1851,1851,1851
214570,1850,1850,1850
214571,1851,1851,1851
214572,1847,1847,1847
214573,1854,1854,1854
214574,1831,1831,1831
214575,1836,1836,1836
214576,1844,1844,1844
214579,1847,1847,1847
214580,1847,1847,1847
214581,1847,1847,1847
214582,1849,1849,1849
214583,1846,1846,1846
214584,1825,1825,1825
214585,1847,1847,1847
214586,1851,1851,1851
214587,1853,1853,1853
214588,1841,1841,1841
214596,1833,1833,1833
214597,1837,1837,1837
214598,1836,1836,1836
214599,1838,1838,1838
214600,1835,1835,1835
214601,1835,1835,1835
214602,1830,1830,1830
214603,1828,1828,1828
214604,1826,1826,1826
214605,1830,1830,1830
214611,1791,1791,1791
214612,1817,1817,1817
214613,1813,1813,1813
214614,1811,1811,1811
214615,1804,1804,1804
214616,1799,1799,1799
214617,1793,1793,1793
214618,1793,1793,1793
214619,1792,1792,1792
214620,1785,1785,1785
214622,1776,1776,1776
214623,1775,1775,1775
214624,1778,1778,1778
214625,1779,1779,1779
214626,1776,1776,1776
214627,1776,1776,1776
214628,1775,1775,1775
214629,1776,1776,1776
214630,1776,1776,1776
214631,1775,1775,1775
214724,1680,1680,1680
214725,1675,1675,1675
214726,1671,1671,1671
214727,1705,1705,1705
214728,1694,1694,1694
214729,1691,1691,1691
214730,1687,1687,1687
214731,1683,1683,1683
214732,1680,1680,1680
214733,1680,1680,1680
214735,1676,1676,1676
214736,1677,1677,1677
214737,1673,1673,1673
214738,1670,1670,1670
214739,1674,1674,1674
214740,1673,1673,1673
214741,1674,1674,1674
214742,1669,1669,1669
214743,1672,1672,1672
214744,1670,1670,1670
214746,1667,1667,1667
214747,1668,1668,1668
214748,1670,1670,1670
214749,1665,1665,1665
214750,1668,1668,1668
214751,1663,1663,1663
214752,1673,1673,1673
214753,1671,1671,1671
214754,1674,1674,1674
214755,1675,1675,1675
214757,1664,1664,1664
214758,1659,1659,1659
214759,1664,1664,1664
214760,1661,1661,1661
214761,1663,1663,1663
214762,1660,1660,1660
214763,1664,1664,1664
214764,1665,1665,1665
214765,1665,1665,1665
214766,1663,1663,1663
214769,1670,1670,1670
214770,1670,1670,1670
214771,1675,1675,1675
214772,1675,1675,1675
214773,1679,1679,1679
214774,1680,1680,1680
214775,1678,1678,1678
214776,1679,1679,1679
214777,1664,1664,1664
214778,1666,1666,1666
214780,1671,1671,1671
214781,1689,1689,1689
214782,1687,1687,1687
214783,1690,1690,1690
214784,1689,1689,1689
214785,1691,1691,1691
214786,1695,1695,1695
214787,1693,1693,1693
214788,1695,1695,1695
214789,1697,1697,1697
214798,1675,1675,1675
214799,1675,1675,1675
214800,1678,1678,1678
214801,1680,1680,1680
214802,1680,1680,1680
214803,1681,1681,1681
214804,1687,1687,1687
214805,1687,1687,1687
214806,1666,1666,1666
214807,1669,1669,1669
214811,1697,1697,1697
214812,1696,1696,1696
214813,1702,1702,1702
214814,1703,1703,1703
214815,1701,1701,1701
214816,1697,1697,1697
214817,1700,1700,1700
214818,1705,1705,1705
214819,1705,1705,1705
214820,1709,1709,1709
214822,1719,1719,1719
214823,1722,1722,1722
214824,1707,1707,1707
214825,1705,1705,1705
214826,1701,1701,1701
214827,1707,1707,1707
214828,1712,1712,1712
214829,1713,1713,1713
214830,1710,1710,1710
214831,1717,1717,1717
214833,1714,1714,1714
214834,1723,1723,1723
214835,1715,1715,1715
214836,1718,1718,1718
214837,1719,1719,1719
214838,1722,1722,1722
214839,1715,1715,1715
214840,1718,1718,1718
214841,1722,1722,1722
214842,1721,1721,1721
214845,1744,1744,1744
214846,1744,1744,1744
214847,1744,1744,1744
214848,1750,1750,1750
214849,1750,1750,1750
214850,1727,1727,1727
214851,1731,1731,1731
214852,1731,1731,1731
214853,1712,1712,1712
214854,1741,1741,1741
214934,1695,1695,1695
214935,1695,1695,1695
214936,1690,1690,1690
214937,1699,1699,1699
214938,1697,1697,1697
214939,1699,1699,1699
214940,1686,1686,1686
214941,1698,1698,1698
214942,1697,1697,1697
214943,1697,1697,1697
214945,1680,1680,1680
214946,1674,1674,1674
214947,1671,1671,1671
214948,1669,1669,1669
214949,1665,1665,1665
214950,1684,1684,1684
214951,1683,1683,1683
214952,1680,1680,1680
214953,1680,1680,1680
214954,1679,1679,1679
214956,1653,1653,1653
214957,1651,1651,1651
214958,1651,1651,1651
214959,1648,1648,1648
214960,1647,1647,1647
214961,1647,1647,1647
214962,1666,1666,1666
214963,1661,1661,1661
214964,1658,1658,1658
214965,1654,1654,1654
214967,1642,1642,1642
214968,1645,1645,1645
214969,1648,1648,1648
214970,1649,1649,1649
214971,1648,1648,1648
214972,1653,1653,1653
214973,1648,1648,1648
214974,1645,1645,1645
214975,1647,1647,1647
214976,1648,1648,1648
214980,1644,1644,1644
214981,1642,1642,1642
214982,1641,1641,1641
214983,1637,1637,1637
214984,1632,1632,1632
214985,1630,1630,1630
214986,1623,1623,1623
214987,1622,1622,1622
214988,1618,1618,1618
214989,1647,1647,1647
214992,1616,1616,1616
214993,1613,1613,1613
214994,1618,1618,1618
214995,1616,1616,1616
214996,1615,1615,1615
214997,1616,1616,1616
214998,1613,1613,1613
214999,1615,1615,1615
215000,1616,1616,1616
215001,1616,1616,1616
215004,1619,1619,1619
215005,1616,1616,1616
215006,1617,1617,1617
215007,1615,1615,1615
215008,1615,1615,1615
215009,1614,1614,1614
215010,1613,1613,1613
215011,1616,1616,1616
215012,1617,1617,1617
215013,1616,1616,1616
215016,1604,1604,1604
215017,1603,1603,1603
215018,1603,1603,1603
215019,1602,1602,1602
215020,1603,1603,1603
215021,1611,1611,1611
215022,1611,1611,1611
215023,1609,1609,1609
215024,1616,1616,1616
215025,1604,1604,1604
215027,1606,1606,1606
215028,1606,1606,1606
215029,1601,1601,1601
215030,1601,1601,1601
215031,1597,1597,1597
215032,1597,1597,1597
215033,1595,1595,1595
215034,1604,1604,1604
215035,1605,1605,1605
215036,1610,1610,1610
215039,1603,1603,1603
215040,1605,1605,1605
215041,1606,1606,1606
215042,1610,1610,1610
215043,1616,1616,1616
215044,1616,1616,1616
215045,1625,1625,1625
215046,1628,1628,1628
215047,1595,1595,1595
215048,1596,1596,1596
215050,1629,1629,1629
215051,1633,1633,1633
215052,1633,1633,1633
215053,1643,1643,1643
215054,1648,1648,1648
215055,1654,1654,1654
215056,1664,1664,1664
215057,1667,1667,1667
215058,1675,1675,1675
215059,1675,1675,1675
215070,1664,1664,1664
215071,1666,1666,1666
215072,1670,1670,1670
215073,1670,1670,1670
215074,1668,1668,1668
215075,1674,1674,1674
215076,1671,1671,1671
215077,1674,1674,1674
215078,1675,1675,1675
215079,1664,1664,1664
215081,1649,1649,1649
215082,1680,1680,1680
215083,1666,1666,1666
215084,1669,1669,1669
215085,1664,1664,1664
215086,1663,1663,1663
215087,1658,1658,1658
215088,1658,1658,1658
215089,1653,1653,1653
215090,1651,1651,1651
215092,1631,1631,1631
215093,1634,1634,1634
215094,1648,1648,1648
215095,1639,1639,1639
215096,1639,1639,1639
215097,1635,1635,1635
215098,1632,1632,1632
215099,1634,1634,1634
215100,1635,1635,1635
215101,1633,1633,1633
215103,1631,1631,1631
215104,1633,1633,1633
215105,1630,1630,1630
215106,1634,1634,1634
215107,1627,1627,1627
215108,1626,1626,1626
215109,1621,1621,1621
215110,1625,1625,1625
215111,1626,1626,1626
215112,1627,1627,1627
215116,1648,1648,1648
215117,1646,1646,1646
215118,1648,1648,1648
215119,1649,1649,1649
215120,1653,1653,1653
215121,1636,1636,1636
215122,1639,1639,1639
215123,1642,1642,1642
215124,1645,1645,1645
215125,1637,1637,1637
215128,1675,1675,1675
215129,1675,1675,1675
215130,1678,1678,1678
215131,1677,1677,1677
215132,1675,1675,1675
215133,1678,1678,1678
215134,1680,1680,1680
215135,1680,1680,1680
215136,1677,1677,1677
215137,1670,1670,1670
215148,1658,1658,1658
215149,1657,1657,1657
215150,1651,1651,1651
215151,1655,1655,1655
215152,1659,1659,1659
215153,1664,1664,1664
215154,1663,1663,1663
215155,1661,1661,1661
215156,1662,1662,1662
215157,1658,1658,1658
215160,1663,1663,1663
215161,1664,1664,1664
215162,1661,1661,1661
215163,1664,1664,1664
215164,1659,1659,1659
215165,1669,1669,1669
215166,1673,1673,1673
215167,1679,1679,1679
215168,1681,1681,1681
215169,1686,1686,1686
215172,1698,1698,1698
215173,1695,1695,1695
215174,1691,1691,1691
215175,1694,1694,1694
215176,1692,1692,1692
215177,1694,1694,1694
215178,1695,1695,1695
215179,1696,1696,1696
215180,1693,1693,1693
215181,1696,1696,1696
215183,1711,1711,1711
215184,1714,1714,1714
215185,1712,1712,1712
215186,1698,1698,1698
215187,1699,1699,1699
215188,1703,1703,1703
215189,1709,1709,1709
215190,1709,1709,1709
215191,1711,1711,1711
215192,1711,1711,1711
215196,1712,1712,1712
215197,1709,1709,1709
215198,1703,1703,1703
215199,1699,1699,1699
215200,1701,1701,1701
215201,1704,1704,1704
215202,1713,1713,1713
215203,1711,1711,1711
215204,1710,1710,1710
215205,1709,1709,1709
215209,1703,1703,1703
215210,1700,1700,1700
215211,1705,1705,1705
215212,1706,1706,1706
215213,1709,1709,1709
215214,1710,1710,1710
215215,1700,1700,1700
215216,1707,1707,1707
215217,1707,1707,1707
215218,1702,1702,1702
215221,1707,1707,1707
215222,1701,1701,1701
215223,1703,1703,1703
215224,1710,1710,1710
215225,1703,1703,1703
215226,1705,1705,1705
215227,1706,1706,1706
215228,1703,1703,1703
215229,1699,1699,1699
215230,1708,1708,1708
215232,1697,1697,1697
215233,1693,1693,1693
215234,1705,1705,1705
215235,1703,1703,1703
215236,1703,1703,1703
215237,1699,1699,1699
215238,1699,1699,1699
215239,1695,1695,1695
215240,1696,1696,1696
215241,1697,1697,1697
215243,1692,1692,1692
215244,1694,1694,1694
215245,1695,1695,1695
215246,1697,1697,1697
215247,1691,1691,1691
215248,1694,1694,1694
215249,1693,1693,1693
215250,1694,1694,1694
215251,1691,1691,1691
215252,1691,1691,1691
215255,1687,1687,1687
215256,1683,1683,1683
215257,1686,1686,1686
215258,1691,1691,1691
215259,1695,1695,1695
215260,1689,1689,1689
215261,1699,1699,1699
215262,1696,1696,1696
215263,1690,1690,1690
215264,1683,1683,1683
215266,1680,1680,1680
215267,1677,1677,1677
215268,1673,1673,1673
215269,1668,1668,1668
215270,1666,1666,1666
215271,1661,1661,1661
215272,1692,1692,1692
215273,1691,1691,1691
215274,1686,1686,1686
215275,1681,1681,1681
215286,1630,1630,1630
215287,1643,1643,1643
215288,1648,1648,1648
215289,1659,1659,1659
215290,1664,1664,1664
215291,1628,1628,1628
215292,1622,1622,1622
215293,1621,1621,1621
215294,1627,1627,1627
215295,1628,1628,1628
215298,1684,1684,1684
215299,1685,1685,1685
215300,1680,1680,1680
215301,1681,1681,1681
215302,1682,1682,1682
215303,1681,1681,1681
215304,1682,1682,1682
215305,1686,1686,1686
215306,1681,1681,1681
215307,1680,1680,1680
215310,1681,1681,1681
215311,1684,1684,1684
215312,1682,1682,1682
215313,1680,1680,1680
215314,1679,1679,1679
215315,1680,1680,1680
215316,1680,1680,1680
215317,1680,1680,1680
215318,1680,1680,1680
215319,1678,1678,1678
215322,1668,1668,1668
215323,1680,1680,1680
215324,1678,1678,1678
215325,1674,1674,1674
215326,1676,1676,1676
215327,1680,1680,1680
215328,1667,1667,1667
215329,1667,1667,1667
215330,1666,1666,1666
215331,1667,1667,1667
215334,1663,1663,1663
215335,1668,1668,1668
215336,1665,1665,1665
215337,1658,1658,1658
215338,1658,1658,1658
215339,1662,1662,1662
215340,1658,1658,1658
215341,1657,1657,1657
215342,1661,1661,1661
215343,1660,1660,1660
215345,1680,1680,1680
215346,1682,1682,1682
215347,1681,1681,1681
215348,1681,1681,1681
215349,1682,1682,1682
215350,1672,1672,1672
215351,1674,1674,1674
215352,1675,1675,1675
215353,1677,1677,1677
215354,1679,1679,1679
215363,1681,1681,1681
215364,1674,1674,1674
215365,1683,1683,1683
215366,1679,1679,1679
215367,1678,1678,1678
215368,1678,1678,1678
215369,1679,1679,1679
215370,1680,1680,1680
215371,1682,1682,1682
215372,1680,1680,1680
215375,1674,1674,1674
215376,1674,1674,1674
215377,1673,1673,1673
215378,1677,1677,1677
215379,1675,1675,1675
215380,1679,1679,1679
215381,1680,1680,1680
215382,1677,1677,1677
215383,1677,1677,1677
215384,1655,1655,1655
215386,1664,1664,1664
215387,1659,1659,1659
215388,1659,1659,1659
215389,1660,1660,1660
215390,1653,1653,1653
215391,1657,1657,1657
215392,1673,1673,1673
215393,1671,1671,1671
215394,1665,1665,1665
215395,1665,1665,1665
215397,1658,1658,1658
215398,1663,1663,1663
215399,1668,1668,1668
215400,1673,1673,1673
215401,1673,1673,1673
215402,1680,1680,1680
215403,1682,1682,1682
215404,1657,1657,1657
215405,1660,1660,1660
215406,1660,1660,1660
215408,1712,1712,1712
215409,1714,1714,1714
215410,1714,1714,1714
215411,1713,1713,1713
215412,1712,1712,1712
215413,1712,1712,1712
215414,1712,1712,1712
215415,1711,1711,1711
215416,1697,1697,1697
215417,1706,1706,1706
215426,1685,1685,1685
215427,1681,1681,1681
215428,1682,1682,1682
215429,1680,1680,1680
215430,1675,1675,1675
215431,1695,1695,1695
215432,1693,1693,1693
215433,1688,1688,1688
215434,1693,1693,1693
215435,1686,1686,1686
215437,1653,1653,1653
215438,1653,1653,1653
215439,1658,1658,1658
215440,1664,1664,1664
215441,1664,1664,1664
215442,1667,1667,1667
215443,1673,1673,1673
215444,1662,1662,1662
215445,1661,1661,1661
215446,1658,1658,1658
215448,1688,1688,1688
215449,1690,1690,1690
215450,1691,1691,1691
215451,1695,1695,1695
215452,1693,1693,1693
215453,1690,1690,1690
215454,1689,1689,1689
215455,1687,1687,1687
215456,1679,1679,1679
215457,1684,1684,1684
215459,1683,1683,1683
215460,1688,1688,1688
215461,1682,1682,1682
215462,1683,1683,1683
215463,1685,1685,1685
215464,1684,1684,1684
215465,1687,1687,1687
215466,1686,1686,1686
215467,1687,1687,1687
215468,1686,1686,1686
215471,1699,1699,1699
215472,1687,1687,1687
215473,1690,1690,1690
215474,1693,1693,1693
215475,1698,1698,1698
215476,1696,1696,1696
215477,1694,1694,1694
215478,1696,1696,1696
215479,1695,1695,1695
215480,1694,1694,1694
215483,1703,1703,1703
215484,1699,1699,1699
215485,1700,1700,1700
215486,1689,1689,1689
215487,1699,1699,1699
215488,1702,1702,1702
215489,1699,1699,1699
215490,1701,1701,1701
215491,1703,1703,1703
215492,1702,1702,1702
215500,1671,1671,1671
215501,1686,1686,1686
215502,1680,1680,1680
215503,1679,1679,1679
215504,1680,1680,1680
215505,1680,1680,1680
215506,1678,1678,1678
215507,1680,1680,1680
215508,1677,1677,1677
215509,1681,1681,1681
215511,1648,1648,1648
215512,1665,1665,1665
215513,1672,1672,1672
215514,1664,1664,1664
215515,1664,1664,1664
215516,1662,1662,1662
215517,1655,1655,1655
215518,1650,1650,1650
215519,1648,1648,1648
215520,1648,1648,1648
215523,1651,1651,1651
215524,1654,1654,1654
215525,1648,1648,1648
215526,1648,1648,1648
215527,1648,1648,1648
215528,1648,1648,1648
215529,1648,1648,1648
215530,1651,1651,1651
215531,1649,1649,1649
215532,1650,1650,1650
215644,1680,1680,1680
215645,1687,1687,1687
215646,1687,1687,1687
215647,1686,1686,1686
215648,1680,1680,1680
215649,1675,1675,1675
215650,1679,1679,1679
215651,1678,1678,1678
215652,1685,1685,1685
215653,1682,1682,1682
215655,1677,1677,1677
215656,1677,1677,1677
215657,1676,1676,1676
215658,1670,1670,1670
215659,1671,1671,1671
215660,1686,1686,1686
215661,1680,1680,1680
215662,1680,1680,1680
215663,1681,1681,1681
215664,1679,1679,1679
215666,1669,1669,1669
215667,1669,1669,1669
215668,1665,1665,1665
215669,1667,1667,1667
215670,1661,1661,1661
215671,1661,1661,1661
215672,1671,1671,1671
215673,1669,1669,1669
215674,1670,1670,1670
215675,1675,1675,1675
215677,1653,1653,1653
215678,1653,1653,1653
215679,1654,1654,1654
215680,1657,1657,1657
215681,1652,1652,1652
215682,1655,1655,1655
215683,1658,1658,1658
215684,1657,1657,1657
215685,1660,1660,1660
215686,1657,1657,1657
215689,1669,1669,1669
215690,1670,1670,1670
215691,1678,1678,1678
215692,1667,1667,1667
215693,1680,1680,1680
215694,1667,1667,1667
215695,1662,1662,1662
215696,1665,1665,1665
215697,1665,1665,1665
215698,1666,1666,1666
215700,1658,1658,1658
215701,1659,1659,1659
215702,1660,1660,1660
215703,1663,1663,1663
215704,1661,1661,1661
215705,1655,1655,1655
215706,1652,1652,1652
215707,1648,1648,1648
215708,1647,1647,1647
215709,1639,1639,1639
215717,1616,1616,1616
215718,1616,1616,1616
215719,1611,1611,1611
215720,1622,1622,1622
215721,1620,1620,1620
215722,1621,1621,1621
215723,1609,1609,1609
215724,1611,1611,1611
215725,1614,1614,1614
215726,1614,1614,1614
215730,1640,1640,1640
215731,1642,1642,1642
215732,1642,1642,1642
215733,1642,1642,1642
215734,1645,1645,1645
215735,1642,1642,1642
215736,1646,1646,1646
215737,1642,1642,1642
215738,1642,1642,1642
215739,1634,1634,1634
215741,1627,1627,1627
215742,1626,1626,1626
215743,1638,1638,1638
215744,1636,1636,1636
215745,1638,1638,1638
215746,1635,1635,1635
215747,1633,1633,1633
215748,1634,1634,1634
215749,1629,1629,1629
215750,1629,1629,1629
215752,1610,1610,1610
215753,1616,1616,1616
215754,1616,1616,1616
215755,1614,1614,1614
215756,1613,1613,1613
215757,1605,1605,1605
215758,1616,1616,1616
215759,1593,1593,1593
215760,1591,1591,1591
215761,1601,1601,1601
215764,1648,1648,1648
215765,1645,1645,1645
215766,1642,1642,1642
215767,1638,1638,1638
215768,1638,1638,1638
215769,1646,1646,1646
215770,1648,1648,1648
215771,1648,1648,1648
215772,1648,1648,1648
215773,1646,1646,1646
215854,1664,1664,1664
215855,1667,1667,1667
215856,1666,1666,1666
215857,1650,1650,1650
215858,1651,1651,1651
215859,1656,1656,1656
215860,1655,1655,1655
215861,1659,1659,1659
215862,1661,1661,1661
215863,1664,1664,1664
215865,1663,1663,1663
215866,1664,1664,1664
215867,1663,1663,1663
215868,1665,1665,1665
215869,1665,1665,1665
215870,1665,1665,1665
215871,1665,1665,1665
215872,1665,1665,1665
215873,1664,1664,1664
215874,1663,1663,1663
215876,1669,1669,1669
215877,1670,1670,1670
215878,1670,1670,1670
215879,1675,1675,1675
215880,1673,1673,1673
215881,1678,1678,1678
215882,1668,1668,1668
215883,1666,1666,1666
215884,1667,1667,1667
215885,1666,1666,1666
215887,1680,1680,1680
215888,1683,1683,1683
215889,1682,1682,1682
215890,1682,1682,1682
215891,1684,1684,1684
215892,1684,1684,1684
215893,1680,1680,1680
215894,1680,1680,1680
215895,1681,1681,1681
215896,1680,1680,1680
215901,1679,1679,1679
215902,1684,1684,1684
215903,1691,1691,1691
215904,1692,1692,1692
215905,1696,1696,1696
215906,1702,1702,1702
215907,1710,1710,1710
215908,1717,1717,1717
215909,1712,1712,1712
215910,1712,1712,1712
215913,1702,1702,1702
215914,1698,1698,1698
215915,1702,1702,1702
215916,1711,1711,1711
215917,1712,1712,1712
215918,1705,1705,1705
215919,1706,1706,1706
215920,1704,1704,1704
215921,1699,1699,1699
215922,1697,1697,1697
215924,1693,1693,1693
215925,1699,1699,1699
215926,1695,1695,1695
215927,1694,1694,1694
215928,1687,1687,1687
215929,1697,1697,1697
215930,1696,1696,1696
215931,1695,1695,1695
215932,1698,1698,1698
215933,1692,1692,1692
215936,1680,1680,1680
215937,1675,1675,1675
215938,1678,1678,1678
215939,1677,1677,1677
215940,1673,1673,1673
215941,1672,1672,1672
215942,1685,1685,1685
215943,1682,1682,1682
215944,1680,1680,1680
215945,1680,1680,1680
215947,1658,1658,1658
215948,1654,1654,1654
215949,1653,1653,1653
215950,1649,1649,1649
215951,1647,1647,1647
215952,1647,1647,1647
215953,1645,1645,1645
215954,1664,1664,1664
215955,1661,1661,1661
215956,1660,1660,1660
215959,1631,1631,1631
215960,1634,1634,1634
215961,1630,1630,1630
215962,1629,1629,1629
215963,1623,1623,1623
215964,1629,1629,1629
215965,1626,1626,1626
215966,1633,1633,1633
215967,1636,1636,1636
215968,1635,1635,1635
215970,1632,1632,1632
215971,1631,1631,1631
215972,1629,1629,1629
215973,1629,1629,1629
215974,1631,1631,1631
215975,1629,1629,1629
215976,1623,1623,1623
215977,1622,1622,1622
215978,1620,1620,1620
215979,1618,1618,1618
215987,1584,1584,1584
215988,1579,1579,1579
215989,1577,1577,1577
215990,1574,1574,1574
215991,1569,1569,1569
215992,1571,1571,1571
215993,1611,1611,1611
215994,1601,1601,1601
215995,1586,1586,1586
215996,1589,1589,1589
215999,1556,1556,1556
216000,1553,1553,1553
216001,1557,1557,1557
216002,1557,1557,1557
216003,1562,1562,1562
216004,1559,1559,1559
216005,1563,1563,1563
216006,1566,1566,1566
216007,1565,1565,1565
216008,1559,1559,1559
216010,1573,1573,1573
216011,1572,1572,1572
216012,1575,1575,1575
216013,1579,1579,1579
216014,1581,1581,1581
216015,1579,1579,1579
216016,1582,1582,1582
216017,1584,1584,1584
216018,1584,1584,1584
216019,1584,1584,1584
216021,1597,1597,1597
216022,1585,1585,1585
216023,1588,1588,1588
216024,1593,1593,1593
216025,1591,1591,1591
216026,1599,1599,1599
216027,1596,1596,1596
216028,1599,1599,1599
216029,1600,1600,1600
216030,1595,1595,1595
216034,1621,1621,1621
216035,1613,1613,1613
216036,1626,1626,1626
216037,1622,1622,1622
216038,1600,1600,1600
216039,1605,1605,1605
216040,1610,1610,1610
216041,1612,1612,1612
216042,1623,1623,1623
216043,1616,1616,1616
216047,1634,1634,1634
216048,1632,1632,1632
216049,1631,1631,1631
216050,1629,1629,1629
216051,1625,1625,1625
216052,1624,1624,1624
216053,1627,1627,1627
216054,1626,1626,1626
216055,1633,1633,1633
216056,1635,1635,1635
216064,1621,1621,1621
216065,1623,1623,1623
216066,1628,1628,1628
216067,1616,1616,1616
216068,1616,1616,1616
216069,1617,1617,1617
216070,1620,1620,1620
216071,1619,1619,1619
216072,1618,1618,1618
216073,1626,1626,1626
216094,1600,1600,1600
216095,1602,1602,1602
216096,1600,1600,1600
216097,1601,1601,1601
216098,1601,1601,1601
216099,1602,1602,1602
216100,1600,1600,1600
216101,1599,1599,1599
216102,1598,1598,1598
216103,1598,1598,1598
216105,1584,1584,1584
216106,1584,1584,1584
216107,1584,1584,1584
216108,1586,1586,1586
216109,1587,1587,1587
216110,1585,1585,1585
216111,1587,1587,1587
216112,1584,1584,1584
216113,1586,1586,1586
216114,1584,1584,1584
216117,1590,1590,1590
216118,1579,1579,1579
216119,1581,1581,1581
216120,1579,1579,1579
216121,1575,1575,1575
216122,1574,1574,1574
216123,1584,1584,1584
216124,1585,1585,1585
216125,1589,1589,1589
216126,1584,1584,1584
216129,1574,1574,1574
216130,1576,1576,1576
216131,1574,1574,1574
216132,1574,1574,1574
216133,1569,1569,1569
216134,1574,1574,1574
216135,1571,1571,1571
216136,1571,1571,1571
216137,1575,1575,1575
216138,1570,1570,1570
216142,1569,1569,1569
216143,1568,1568,1568
216144,1569,1569,1569
216145,1569,1569,1569
216146,1574,1574,1574
216147,1567,1567,1567
216148,1568,1568,1568
216149,1568,1568,1568
216150,1565,1565,1565
216151,1570,1570,1570
216153,1566,1566,1566
216154,1570,1570,1570
216155,1575,1575,1575
216156,1578,1578,1578
216157,1572,1572,1572
216158,1574,1574,1574
216159,1570,1570,1570
216160,1568,1568,1568
216161,1565,1565,1565
216162,1567,1567,1567
216166,1584,1584,1584
216167,1586,1586,1586
216168,1585,1585,1585
216169,1583,1583,1583
216170,1583,1583,1583
216171,1587,1587,1587
216172,1585,1585,1585
216173,1591,1591,1591
216174,1584,1584,1584
216175,1585,1585,1585
216177,1574,1574,1574
216178,1579,1579,1579
216179,1578,1578,1578
216180,1578,1578,1578
216181,1578,1578,1578
216182,1576,1576,1576
216183,1578,1578,1578
216184,1575,1575,1575
216185,1575,1575,1575
216186,1574,1574,1574
216188,1579,1579,1579
216189,1577,1577,1577
216190,1576,1576,1576
216191,1579,1579,1579
216192,1577,1577,1577
216193,1577,1577,1577
216194,1573,1573,1573
216195,1577,1577,1577
216196,1583,1583,1583
216197,1573,1573,1573
216208,1562,1562,1562
216209,1568,1568,1568
216210,1566,1566,1566
216211,1564,1564,1564
216212,1563,1563,1563
216213,1564,1564,1564
216214,1565,1565,1565
216215,1565,1565,1565
216216,1561,1561,1561
216217,1562,1562,1562
216220,1563,1563,1563
216221,1565,1565,1565
216222,1563,1563,1563
216223,1565,1565,1565
216224,1565,1565,1565
216225,1564,1564,1564
216226,1565,1565,1565
216227,1564,1564,1564
216228,1567,1567,1567
216229,1564,1564,1564
216231,1573,1573,1573
216232,1565,1565,1565
216233,1563,1563,1563
216234,1565,1565,1565
216235,1563,1563,1563
216236,1562,1562,1562
216237,1566,1566,1566
216238,1562,1562,1562
216239,1568,1568,1568
216240,1568,1568,1568
216243,1575,1575,1575
216244,1573,1573,1573
216245,1574,1574,1574
216246,1580,1580,1580
216247,1581,1581,1581
216248,1582,1582,1582
216249,1584,1584,1584
216250,1583,1583,1583
216251,1579,1579,1579
216252,1578,1578,1578
216255,1586,1586,1586
216256,1590,1590,1590
216257,1585,1585,1585
216258,1597,1597,1597
216259,1580,1580,1580
216260,1579,1579,1579
216261,1584,1584,1584
216262,1585,1585,1585
216263,1584,1584,1584
216264,1585,1585,1585
216266,1597,1597,1597
216267,1597,1597,1597
216268,1607,1607,1607
216269,1621,1621,1621
216270,1616,1616,1616
216271,1616,1616,1616
216272,1587,1587,1587
216273,1586,1586,1586
216274,1587,1587,1587
216275,1590,1590,1590
216283,1590,1590,1590
216284,1587,1587,1587
216285,1600,1600,1600
216286,1600,1600,1600
216287,1603,1603,1603
216288,1595,1595,1595
216289,1594,1594,1594
216290,1593,1593,1593
216291,1594,1594,1594
216292,1590,1590,1590
216300,1584,1584,1584
216301,1588,1588,1588
216302,1593,1593,1593
216303,1590,1590,1590
216304,1589,1589,1589
216305,1595,1595,1595
216306,1600,1600,1600
216307,1600,1600,1600
216308,1600,1600,1600
216309,1580,1580,1580
216311,1615,1615,1615
216312,1613,1613,1613
216313,1615,1615,1615
216314,1616,1616,1616
216315,1617,1617,1617
216316,1616,1616,1616
216317,1616,1616,1616
216318,1616,1616,1616
216319,1617,1617,1617
216320,1616,1616,1616
216322,1615,1615,1615
216323,1616,1616,1616
216324,1615,1615,1615
216325,1615,1615,1615
216326,1616,1616,1616
216327,1616,1616,1616
216328,1616,1616,1616
216329,1616,1616,1616
216330,1614,1614,1614
216331,1614,1614,1614
216335,1626,1626,1626
216336,1627,1627,1627
216337,1621,1621,1621
216338,1625,1625,1625
216339,1619,1619,1619
216340,1619,1619,1619
216341,1617,1617,1617
216342,1622,1622,1622
216343,1616,1616,1616
216344,1625,1625,1625
216348,1641,1641,1641
216349,1645,1645,1645
216350,1642,1642,1642
216351,1643,1643,1643
216352,1643,1643,1643
216353,1637,1637,1637
216354,1637,1637,1637
216355,1636,1636,1636
216356,1637,1637,1637
216357,1643,1643,1643
216359,1633,1633,1633
216360,1633,1633,1633
216361,1636,1636,1636
216362,1632,1632,1632
216363,1633,1633,1633
216364,1633,1633,1633
216365,1638,1638,1638
216366,1641,1641,1641
216367,1643,1643,1643
216368,1630,1630,1630
216370,1648,1648,1648
216371,1648,1648,1648
216372,1650,1650,1650
216373,1657,1657,1657
216374,1655,1655,1655
216375,1659,1659,1659
216376,1663,1663,1663
216377,1662,1662,1662
216378,1662,1662,1662
216379,1664,1664,1664
216381,1649,1649,1649
216382,1663,1663,1663
216383,1664,1664,1664
216384,1653,1653,1653
216385,1650,1650,1650
216386,1648,1648,1648
216387,1648,1648,1648
216388,1642,1642,1642
216389,1646,1646,1646
216390,1648,1648,1648
216393,1660,1660,1660
216394,1664,1664,1664
216395,1654,1654,1654
216396,1654,1654,1654
216397,1659,1659,1659
216398,1664,1664,1664
216399,1662,1662,1662
216400,1660,1660,1660
216401,1660,1660,1660
216402,1661,1661,1661
216404,1668,1668,1668
216405,1671,1671,1671
216406,1674,1674,1674
216407,1667,1667,1667
216408,1664,1664,1664
216409,1668,1668,1668
216410,1669,1669,1669
216411,1670,1670,1670
216412,1670,1670,1670
216413,1674,1674,1674
216424,1649,1649,1649
216425,1648,1648,1648
216426,1649,1649,1649
216427,1643,1643,1643
216428,1642,1642,1642
216429,1644,1644,1644
216430,1645,1645,1645
216431,1643,1643,1643
216432,1648,1648,1648
216433,1647,1647,1647
216435,1655,1655,1655
216436,1659,1659,1659
216437,1661,1661,1661
216438,1664,1664,1664
216439,1664,1664,1664
216440,1653,1653,1653
216441,1653,1653,1653
216442,1649,1649,1649
216443,1651,1651,1651
216444,1655,1655,1655
216448,1670,1670,1670
216449,1670,1670,1670
216450,1673,1673,1673
216451,1673,1673,1673
216452,1670,1670,1670
216453,1673,1673,1673
216454,1676,1676,1676
216455,1668,1668,1668
216456,1667,1667,1667
216457,1669,1669,1669
216459,1681,1681,1681
216460,1680,1680,1680
216461,1680,1680,1680
216462,1686,1686,1686
216463,1685,1685,1685
216464,1685,1685,1685
216465,1688,1688,1688
216466,1695,1695,1695
216467,1695,1695,1695
216468,1680,1680,1680
216471,1696,1696,1696
216472,1698,1698,1698
216473,1700,1700,1700
216474,1694,1694,1694
216475,1695,1695,1695
216476,1697,1697,1697
216477,1691,1691,1691
216478,1689,1689,1689
216479,1692,1692,1692
216480,1698,1698,1698
216482,1703,1703,1703
216483,1706,1706,1706
216484,1701,1701,1701
216485,1701,1701,1701
216486,1703,1703,1703
216487,1703,1703,1703
216488,1703,1703,1703
216489,1704,1704,1704
216490,1705,1705,1705
216491,1703,1703,1703
216500,1677,1677,1677
216501,1680,1680,1680
216502,1681,1681,1681
216503,1680,1680,1680
216504,1677,1677,1677
216505,1674,1674,1674
216506,1677,1677,1677
216507,1674,1674,1674
216508,1677,1677,1677
216509,1685,1685,1685
216512,1665,1665,1665
216513,1669,1669,1669
216514,1665,1665,1665
216515,1661,1661,1661
216516,1653,1653,1653
216517,1652,1652,1652
216518,1657,1657,1657
216519,1657,1657,1657
216520,1656,1656,1656
216521,1663,1663,1663
216523,1667,1667,1667
216524,1666,1666,1666
216525,1669,1669,1669
216526,1669,1669,1669
216527,1663,1663,1663
216528,1667,1667,1667
216529,1664,1664,1664
216530,1664,1664,1664
216531,1669,1669,1669
216532,1668,1668,1668
216534,1677,1677,1677
216535,1671,1671,1671
216536,1673,1673,1673
216537,1673,1673,1673
216538,1671,1671,1671
216539,1670,1670,1670
216540,1669,1669,1669
216541,1671,1671,1671
216542,1671,1671,1671
216543,1669,1669,1669
216546,1679,1679,1679
216547,1679,1679,1679
216548,1680,1680,1680
216549,1678,1678,1678
216550,1679,1679,1679
216551,1680,1680,1680
216552,1677,1677,1677
216553,1680,1680,1680
216554,1676,1676,1676
216555,1679,1679,1679
216558,1682,1682,1682
216559,1693,1693,1693
216560,1695,1695,1695
216561,1695,1695,1695
216562,1699,1699,1699
216563,1702,1702,1702
216564,1702,1702,1702
216565,1701,1701,1701
216566,1691,1691,1691
216567,1682,1682,1682
216570,1697,1697,1697
216571,1694,1694,1694
216572,1693,1693,1693
216573,1695,1695,1695
216574,1691,1691,1691
216575,1690,1690,1690
216576,1685,1685,1685
216577,1683,1683,1683
216578,1681,1681,1681
216579,1680,1680,1680
216587,1664,1664,1664
216588,1670,1670,1670
216589,1668,1668,1668
216590,1670,1670,1670
216591,1667,1667,1667
216592,1666,1666,1666
216593,1664,1664,1664
216594,1669,1669,1669
216595,1679,1679,1679
216596,1668,1668,1668
216607,1675,1675,1675
216608,1673,1673,1673
216609,1678,1678,1678
216610,1680,1680,1680
216611,1681,1681,1681
216612,1683,1683,1683
216613,1657,1657,1657
216614,1663,1663,1663
216615,1662,1662,1662
216616,1665,1665,1665
216618,1690,1690,1690
216619,1692,1692,1692
216620,1691,1691,1691
216621,1691,1691,1691
216622,1689,1689,1689
216623,1691,1691,1691
216624,1692,1692,1692
216625,1697,1697,1697
216626,1693,1693,1693
216627,1691,1691,1691
216630,1694,1694,1694
216631,1698,1698,1698
216632,1693,1693,1693
216633,1685,1685,1685
216634,1677,1677,1677
216635,1680,1680,1680
216636,1678,1678,1678
216637,1677,1677,1677
216638,1678,1678,1678
216639,1686,1686,1686
216642,1701,1701,1701
216643,1701,1701,1701
216644,1686,1686,1686
216645,1692,1692,1692
216646,1690,1690,1690
216647,1694,1694,1694
216648,1692,1692,1692
216649,1693,1693,1693
216650,1691,1691,1691
216651,1698,1698,1698
216654,1727,1727,1727
216655,1725,1725,1725
216656,1731,1731,1731
216657,1712,1712,1712
216658,1713,1713,1713
216659,1717,1717,1717
216660,1727,1727,1727
216661,1723,1723,1723
216662,1726,1726,1726
216663,1729,1729,1729
216665,1724,1724,1724
216666,1730,1730,1730
216667,1731,1731,1731
216668,1734,1734,1734
216669,1734,1734,1734
216670,1722,1722,1722
216671,1728,1728,1728
216672,1726,1726,1726
216673,1726,1726,1726
216674,1728,1728,1728
216676,1753,1753,1753
216677,1755,1755,1755
216678,1751,1751,1751
216679,1762,1762,1762
216680,1758,1758,1758
216681,1759,1759,1759
216682,1743,1743,1743
216683,1745,1745,1745
216684,1750,1750,1750
216685,1753,1753,1753
216688,1770,1770,1770
216689,1766,1766,1766
216690,1765,1765,1765
216691,1766,1766,1766
216692,1762,1762,1762
216693,1762,1762,1762
216694,1771,1771,1771
216695,1759,1759,1759
216696,1765,1765,1765
216697,1771,1771,1771
216699,1771,1771,1771
216700,1771,1771,1771
216701,1772,1772,1772
216702,1775,1775,1775
216703,1776,1776,1776
216704,1776,1776,1776
216705,1776,1776,1776
216706,1771,1771,1771
216707,1774,1774,1774
216708,1769,1769,1769
216717,1770,1770,1770
216718,1781,1781,1781
216719,1775,1775,1775
216720,1776,1776,1776
216721,1779,1779,1779
216722,1780,1780,1780
216723,1787,1787,1787
216724,1760,1760,1760
216725,1770,1770,1770
216726,1767,1767,1767
216729,1788,1788,1788
216730,1787,1787,1787
216731,1786,1786,1786
216732,1791,1791,1791
216733,1790,1790,1790
216734,1793,1793,1793
216735,1793,1793,1793
216736,1776,1776,1776
216737,1802,1802,1802
216738,1798,1798,1798
216740,1795,1795,1795
216741,1794,1794,1794
216742,1794,1794,1794
216743,1791,1791,1791
216744,1785,1785,1785
216745,1789,1789,1789
216746,1785,1785,1785
216747,1790,1790,1790
216748,1795,1795,1795
216749,1802,1802,1802
216752,1797,1797,1797
216753,1812,1812,1812
216754,1811,1811,1811
216755,1815,1815,1815
216756,1814,1814,1814
216757,1813,1813,1813
216758,1814,1814,1814
216759,1808,1808,1808
216760,1806,1806,1806
216761,1799,1799,1799
216764,1785,1785,1785
216765,1783,1783,1783
216766,1783,1783,1783
216767,1789,1789,1789
216768,1786,1786,1786
216769,1791,1791,1791
216770,1786,1786,1786
216771,1783,1783,1783
216772,1783,1783,1783
216773,1786,1786,1786
216776,1811,1811,1811
216777,1815,1815,1815
216778,1818,1818,1818
216779,1819,1819,1819
216780,1818,1818,1818
216781,1823,1823,1823
216782,1799,1799,1799
216783,1803,1803,1803
216784,1807,1807,1807
216785,1808,1808,1808
216793,1806,1806,1806
216794,1802,1802,1802
216795,1809,1809,1809
216796,1823,1823,1823
216797,1806,1806,1806
216798,1808,1808,1808
216799,1808,1808,1808
216800,1807,1807,1807
216801,1806,1806,1806
216802,1805,1805,1805
216814,1819,1819,1819
216815,1793,1793,1793
216816,1797,1797,1797
216817,1797,1797,1797
216818,1793,1793,1793
216819,1795,1795,1795
216820,1791,1791,1791
216821,1792,1792,1792
216822,1792,1792,1792
216823,1793,1793,1793
216825,1797,1797,1797
216826,1791,1791,1791
216827,1787,1787,1787
216828,1791,1791,1791
216829,1796,1796,1796
216830,1801,1801,1801
216831,1798,1798,1798
216832,1798,1798,1798
216833,1794,1794,1794
216834,1799,1799,1799
216836,1809,1809,1809
216837,1811,1811,1811
216838,1815,1815,1815
216839,1811,1811,1811
216840,1815,1815,1815
216841,1821,1821,1821
216842,1803,1803,1803
216843,1808,1808,1808
216844,1808,1808,1808
216845,1808,1808,1808
216850,1830,1830,1830
216851,1829,1829,1829
216852,1833,1833,1833
216853,1825,1825,1825
216854,1826,1826,1826
216855,1828,1828,1828
216856,1829,1829,1829
216857,1841,1841,1841
216858,1842,1842,1842
216859,1831,1831,1831
216864,1866,1866,1866
216865,1860,1860,1860
216866,1859,1859,1859
216867,1855,1855,1855
216868,1868,1868,1868
216869,1872,1872,1872
216870,1869,1869,1869
216871,1867,1867,1867
216872,1868,1868,1868
216873,1869,1869,1869
216876,1842,1842,1842
216877,1846,1846,1846
216878,1844,1844,1844
216879,1842,1842,1842
216880,1842,1842,1842
216881,1850,1850,1850
216882,1849,1849,1849
216883,1849,1849,1849
216884,1849,1849,1849
216885,1845,1845,1845
216887,1863,1863,1863
216888,1866,1866,1866
216889,1858,1858,1858
216890,1862,1862,1862
216891,1857,1857,1857
216892,1858,1858,1858
216893,1858,1858,1858
216894,1853,1853,1853
216895,1856,1856,1856
216896,1859,1859,1859
216898,1867,1867,1867
216899,1866,1866,1866
216900,1870,1870,1870
216901,1868,1868,1868
216902,1869,1869,1869
216903,1867,1867,1867
216904,1870,1870,1870
216905,1863,1863,1863
216906,1869,1869,1869
216907,1861,1861,1861
216912,1858,1858,1858
216913,1858,1858,1858
216914,1857,1857,1857
216915,1853,1853,1853
216916,1846,1846,1846
216917,1846,1846,1846
216918,1852,1852,1852
216919,1854,1854,1854
216920,1853,1853,1853
216921,1854,1854,1854
216923,1854,1854,1854
216924,1852,1852,1852
216925,1853,1853,1853
216926,1857,1857,1857
216927,1856,1856,1856
216928,1855,1855,1855
216929,1856,1856,1856
216930,1855,1855,1855
216931,1852,1852,1852
216932,1853,1853,1853
216941,1835,1835,1835
216942,1824,1824,1824
216943,1815,1815,1815
216944,1815,1815,1815
216945,1812,1812,1812
216946,1819,1819,1819
216947,1815,1815,1815
216948,1818,1818,1818
216949,1827,1827,1827
216950,1824,1824,1824
216955,1819,1819,1819
216956,1825,1825,1825
216957,1809,1809,1809
216958,1798,1798,1798
216959,1804,1804,1804
216960,1824,1824,1824
216961,1825,1825,1825
216962,1821,1821,1821
216963,1825,1825,1825
216964,1819,1819,1819
216967,1779,1779,1779
216968,1776,1776,1776
216969,1770,1770,1770
216970,1771,1771,1771
216971,1762,1762,1762
216972,1751,1751,1751
216973,1751,1751,1751
216974,1787,1787,1787
216975,1781,1781,1781
216976,1779,1779,1779
216978,1773,1773,1773
216979,1779,1779,1779
216980,1785,1785,1785
216981,1789,1789,1789
216982,1794,1794,1794
216983,1795,1795,1795
216984,1798,1798,1798
216985,1801,1801,1801
216986,1761,1761,1761
216987,1770,1770,1770
216990,1795,1795,1795
216991,1792,1792,1792
216992,1792,1792,1792
216993,1795,1795,1795
216994,1790,1790,1790
216995,1791,1791,1791
216996,1786,1786,1786
216997,1785,1785,1785
216998,1779,1779,1779
216999,1776,1776,1776
217003,1738,1738,1738
217004,1736,1736,1736
217005,1732,1732,1732
217006,1759,1759,1759
217007,1758,1758,1758
217008,1755,1755,1755
217009,1754,1754,1754
217010,1753,1753,1753
217011,1745,1745,1745
217012,1744,1744,1744
217013,1725,1725,1725
217014,1722,1722,1722
217015,1717,1717,1717
217016,1729,1729,1729
217017,1731,1731,1731
217018,1731,1731,1731
217019,1733,1733,1733
217020,1731,1731,1731
217021,1730,1730,1730
217022,1730,1730,1730
217024,1687,1687,1687
217025,1681,1681,1681
217026,1683,1683,1683
217027,1683,1683,1683
217028,1701,1701,1701
217029,1706,1706,1706
217030,1689,1689,1689
217031,1690,1690,1690
217032,1683,1683,1683
217033,1690,1690,1690
217035,1681,1681,1681
217036,1681,1681,1681
217037,1680,1680,1680
217038,1679,1679,1679
217039,1677,1677,1677
217040,1683,1683,1683
217041,1682,1682,1682
217042,1680,1680,1680
217043,1680,1680,1680
217044,1678,1678,1678
217047,1678,1678,1678
217048,1679,1679,1679
217049,1680,1680,1680
217050,1683,1683,1683
217051,1684,1684,1684
217052,1695,1695,1695
217053,1677,1677,1677
217054,1670,1670,1670
217055,1669,1669,1669
217056,1667,1667,1667
217059,1697,1697,1697
217060,1699,1699,1699
217061,1694,1694,1694
217062,1697,1697,1697
217063,1700,1700,1700
217064,1702,1702,1702
217065,1703,1703,1703
217066,1711,1711,1711
217067,1701,1701,1701
217068,1706,1706,1706
217076,1717,1717,1717
217077,1718,1718,1718
217078,1717,1717,1717
217079,1718,1718,1718
217080,1721,1721,1721
217081,1722,1722,1722
217082,1721,1721,1721
217083,1727,1727,1727
217084,1714,1714,1714
217085,1719,1719,1719
217088,1727,1727,1727
217089,1729,1729,1729
217090,1719,1719,1719
217091,1718,1718,1718
217092,1718,1718,1718
217093,1713,1713,1713
217094,1715,1715,1715
217095,1714,1714,1714
217096,1726,1726,1726
217097,1726,1726,1726
217099,1731,1731,1731
217100,1741,1741,1741
217101,1744,1744,1744
217102,1744,1744,1744
217103,1745,1745,1745
217104,1754,1754,1754
217105,1757,1757,1757
217106,1759,1759,1759
217107,1757,1757,1757
217108,1725,1725,1725
217122,1763,1763,1763
217123,1783,1783,1783
217124,1778,1778,1778
217125,1777,1777,1777
217126,1774,1774,1774
217127,1770,1770,1770
217128,1770,1770,1770
217129,1755,1755,1755
217130,1767,1767,1767
217131,1765,1765,1765
217138,1753,1753,1753
217139,1758,1758,1758
217140,1758,1758,1758
217141,1759,1759,1759
217142,1763,1763,1763
217143,1760,1760,1760
217144,1763,1763,1763
217145,1747,1747,1747
217146,1749,1749,1749
217147,1751,1751,1751
217150,1765,1765,1765
217151,1756,1756,1756
217152,1760,1760,1760
217153,1761,1761,1761
217154,1759,1759,1759
217155,1764,1764,1764
217156,1761,1761,1761
217157,1760,1760,1760
217158,1766,1766,1766
217159,1765,1765,1765
217162,1766,1766,1766
217163,1770,1770,1770
217164,1770,1770,1770
217165,1770,1770,1770
217166,1774,1774,1774
217167,1767,1767,1767
217168,1769,1769,1769
217169,1763,1763,1763
217170,1774,1774,1774
217171,1784,1784,1784
217173,1761,1761,1761
217174,1762,1762,1762
217175,1762,1762,1762
217176,1774,1774,1774
217177,1772,1772,1772
217178,1772,1772,1772
217179,1771,1771,1771
217180,1765,1765,1765
217181,1765,1765,1765
217182,1764,1764,1764
217185,1756,1756,1756
217186,1761,1761,1761
217187,1750,1750,1750
217188,1746,1746,1746
217189,1748,1748,1748
217190,1760,1760,1760
217191,1768,1768,1768
217192,1759,1759,1759
217193,1746,1746,1746
217194,1766,1766,1766
217198,1741,1741,1741
217199,1743,1743,1743
217200,1744,1744,1744
217201,1744,1744,1744
217202,1741,1741,1741
217203,1741,1741,1741
217204,1744,1744,1744
217205,1744,1744,1744
217206,1742,1742,1742
217207,1743,1743,1743
217209,1740,1740,1740
217210,1740,1740,1740
217211,1741,1741,1741
217212,1735,1735,1735
217213,1735,1735,1735
217214,1738,1738,1738
217215,1737,1737,1737
217216,1735,1735,1735
217217,1744,1744,1744
217218,1737,1737,1737
217220,1750,1750,1750
217221,1763,1763,1763
217222,1767,1767,1767
217223,1765,1765,1765
217224,1767,1767,1767
217225,1771,1771,1771
217226,1769,1769,1769
217227,1761,1761,1761
217228,1765,1765,1765
217229,1763,1763,1763
217231,1741,1741,1741
217232,1756,1756,1756
217233,1757,1757,1757
217234,1751,1751,1751
217235,1751,1751,1751
217236,1750,1750,1750
217237,1745,1745,1745
217238,1744,1744,1744
217239,1742,1742,1742
217240,1741,1741,1741
217243,1751,1751,1751
217244,1757,1757,1757
217245,1733,1733,1733
217246,1738,1738,1738
217247,1744,1744,1744
217248,1740,1740,1740
217249,1734,1734,1734
217250,1744,1744,1744
217251,1751,1751,1751
217252,1757,1757,1757
217255,1742,1742,1742
217256,1734,1734,1734
217257,1731,1731,1731
217258,1731,1731,1731
217259,1726,1726,1726
217260,1750,1750,1750
217261,1746,1746,1746
217262,1745,1745,1745
217263,1744,1744,1744
217264,1746,1746,1746
217267,1703,1703,1703
217268,1698,1698,1698
217269,1696,1696,1696
217270,1682,1682,1682
217271,1680,1680,1680
217272,1680,1680,1680
217273,1714,1714,1714
217274,1715,1715,1715
217275,1711,1711,1711
217276,1707,1707,1707
217278,1671,1671,1671
217279,1674,1674,1674
217280,1664,1664,1664
217281,1667,1667,1667
217282,1664,1664,1664
217283,1664,1664,1664
217284,1662,1662,1662
217285,1655,1655,1655
217286,1676,1676,1676
217287,1673,1673,1673
217289,1649,1649,1649
217290,1645,1645,1645
217291,1643,1643,1643
217292,1641,1641,1641
217293,1639,1639,1639
217294,1638,1638,1638
217295,1637,1637,1637
217296,1641,1641,1641
217297,1639,1639,1639
217298,1651,1651,1651
217302,1679,1679,1679
217303,1680,1680,1680
217304,1648,1648,1648
217305,1649,1649,1649
217306,1649,1649,1649
217307,1654,1654,1654
217308,1659,1659,1659
217309,1666,1666,1666
217310,1672,1672,1672
217311,1675,1675,1675
217314,1678,1678,1678
217315,1667,1667,1667
217316,1658,1658,1658
217317,1654,1654,1654
217318,1649,1649,1649
217319,1695,1695,1695
217320,1694,1694,1694
217321,1691,1691,1691
217322,1687,1687,1687
217323,1681,1681,1681
217331,1668,1668,1668
217332,1663,1663,1663
217333,1662,1662,1662
217334,1651,1651,1651
217335,1648,1648,1648
217336,1648,1648,1648
217337,1646,1646,1646
217338,1639,1639,1639
217339,1635,1635,1635
217340,1635,1635,1635
217342,1616,1616,1616
217343,1616,1616,1616
217344,1634,1634,1634
217345,1629,1629,1629
217346,1630,1630,1630
217347,1626,1626,1626
217348,1626,1626,1626
217349,1622,1622,1622
217350,1617,1617,1617
217351,1618,1618,1618
217353,1603,1603,1603
217354,1611,1611,1611
217355,1611,1611,1611
217356,1604,1604,1604
217357,1607,1607,1607
217358,1609,1609,1609
217359,1605,1605,1605
217360,1598,1598,1598
217361,1606,1606,1606
217362,1606,1606,1606
217365,1615,1615,1615
217366,1610,1610,1610
217367,1611,1611,1611
217368,1600,1600,1600
217369,1618,1618,1618
217370,1616,1616,1616
217371,1617,1617,1617
217372,1616,1616,1616
217373,1618,1618,1618
217374,1617,1617,1617
217377,1587,1587,1587
217378,1584,1584,1584
217379,1586,1586,1586
217380,1582,1582,1582
217381,1583,1583,1583
217382,1586,1586,1586
217383,1595,1595,1595
217384,1590,1590,1590
217385,1591,1591,1591
217386,1584,1584,1584
217388,1600,1600,1600
217389,1599,1599,1599
217390,1601,1601,1601
217391,1601,1601,1601
217392,1600,1600,1600
217393,1602,1602,1602
217394,1598,1598,1598
217395,1603,1603,1603
217396,1586,1586,1586
217397,1589,1589,1589
217406,1607,1607,1607
217407,1605,1605,1605
217408,1607,1607,1607
217409,1609,1609,1609
217410,1605,1605,1605
217411,1606,1606,1606
217412,1606,1606,1606
217413,1607,1607,1607
217414,1603,1603,1603
217415,1595,1595,1595
217430,1595,1595,1595
217431,1590,1590,1590
217432,1594,1594,1594
217433,1594,1594,1594
217434,1601,1601,1601
217435,1600,1600,1600
217436,1604,1604,1604
217437,1606,1606,1606
217438,1611,1611,1611
217439,1599,1599,1599
217441,1610,1610,1610
217442,1616,1616,1616
217443,1615,1615,1615
217444,1609,1609,1609
217445,1610,1610,1610
217446,1611,1611,1611
217447,1606,1606,1606
217448,1605,1605,1605
217449,1611,1611,1611
217450,1610,1610,1610
217452,1614,1614,1614
217453,1616,1616,1616
217454,1606,1606,1606
217455,1606,1606,1606
217456,1609,1609,1609
217457,1603,1603,1603
217458,1614,1614,1614
217459,1609,1609,1609
217460,1614,1614,1614
217461,1613,1613,1613
217471,1651,1651,1651
217472,1648,1648,1648
217473,1649,1649,1649
217474,1649,1649,1649
217475,1655,1655,1655
217476,1649,1649,1649
217477,1653,1653,1653
217478,1651,1651,1651
217479,1651,1651,1651
217480,1650,1650,1650
217482,1653,1653,1653
217483,1657,1657,1657
217484,1648,1648,1648
217485,1651,1651,1651
217486,1654,1654,1654
217487,1655,1655,1655
217488,1657,1657,1657
217489,1656,1656,1656
217490,1654,1654,1654
217491,1659,1659,1659
217493,1648,1648,1648
217494,1648,1648,1648
217495,1647,1647,1647
217496,1654,1654,1654
217497,1657,1657,1657
217498,1654,1654,1654
217499,1649,1649,1649
217500,1651,1651,1651
217501,1649,1649,1649
217502,1648,1648,1648
217504,1622,1622,1622
217505,1626,1626,1626
217506,1628,1628,1628
217507,1628,1628,1628
217508,1645,1645,1645
217509,1641,1641,1641
217510,1644,1644,1644
217511,1635,1635,1635
217512,1635,1635,1635
217513,1627,1627,1627
217516,1627,1627,1627
217517,1626,1626,1626
217518,1625,1625,1625
217519,1627,1627,1627
217520,1632,1632,1632
217521,1627,1627,1627
217522,1633,1633,1633
217523,1630,1630,1630
217524,1630,1630,1630
217525,1626,1626,1626
217527,1629,1629,1629
217528,1626,1626,1626
217529,1625,1625,1625
217530,1616,1616,1616
217531,1614,1614,1614
217532,1609,1609,1609
217533,1610,1610,1610
217534,1633,1633,1633
217535,1633,1633,1633
217536,1634,1634,1634
217547,1574,1574,1574
217548,1567,1567,1567
217549,1564,1564,1564
217550,1563,1563,1563
217551,1557,1557,1557
217552,1557,1557,1557
217553,1585,1585,1585
217554,1584,1584,1584
217555,1579,1579,1579
217556,1578,1578,1578
217559,1535,1535,1535
217560,1535,1535,1535
217561,1531,1531,1531
217562,1531,1531,1531
217563,1526,1526,1526
217564,1527,1527,1527
217565,1529,1529,1529
217566,1525,1525,1525
217567,1525,1525,1525
217568,1535,1535,1535
217571,1525,1525,1525
217572,1527,1527,1527
217573,1529,1529,1529
217574,1522,1522,1522
217575,1520,1520,1520
217576,1520,1520,1520
217577,1520,1520,1520
217578,1520,1520,1520
217579,1520,1520,1520
217580,1513,1513,1513
217586,1513,1513,1513
217587,1515,1515,1515
217588,1520,1520,1520
217589,1513,1513,1513
217590,1519,1519,1519
217591,1520,1520,1520
217592,1505,1505,1505
217593,1509,1509,1509
217594,1511,1511,1511
217595,1509,1509,1509
217599,1522,1522,1522
217600,1530,1530,1530
217601,1526,1526,1526
217602,1530,1530,1530
217603,1535,1535,1535
217604,1535,1535,1535
217605,1535,1535,1535
217606,1535,1535,1535
217607,1535,1535,1535
217608,1520,1520,1520
217610,1554,1554,1554
217611,1558,1558,1558
217612,1554,1554,1554
217613,1554,1554,1554
217614,1535,1535,1535
217615,1535,1535,1535
217616,1535,1535,1535
217617,1535,1535,1535
217618,1535,1535,1535
217619,1535,1535,1535
217621,1535,1535,1535
217622,1535,1535,1535
217623,1535,1535,1535
217624,1535,1535,1535
217625,1535,1535,1535
217626,1535,1535,1535
217627,1534,1534,1534
217628,1533,1533,1533
217629,1533,1533,1533
217630,1535,1535,1535
217632,1559,1559,1559
217633,1564,1564,1564
217634,1535,1535,1535
217635,1535,1535,1535
217636,1535,1535,1535
217637,1535,1535,1535
217638,1535,1535,1535
217639,1535,1535,1535
217640,1535,1535,1535
217641,1557,1557,1557
217644,1573,1573,1573
217645,1568,1568,1568
217646,1577,1577,1577
217647,1570,1570,1570
217648,1569,1569,1569
217649,1567,1567,1567
217650,1569,1569,1569
217651,1571,1571,1571
217652,1573,1573,1573
217653,1574,1574,1574
217655,1586,1586,1586
217656,1590,1590,1590
217657,1589,1589,1589
217658,1595,1595,1595
217659,1598,1598,1598
217660,1581,1581,1581
217661,1581,1581,1581
217662,1584,1584,1584
217663,1584,1584,1584
217664,1611,1611,1611
217672,1596,1596,1596
217673,1599,1599,1599
217674,1606,1606,1606
217675,1603,1603,1603
217676,1604,1604,1604
217677,1603,1603,1603
217678,1601,1601,1601
217679,1603,1603,1603
217680,1605,1605,1605
217681,1600,1600,1600
217684,1615,1615,1615
217685,1616,1616,1616
217686,1618,1618,1618
217687,1618,1618,1618
217688,1605,1605,1605
217689,1605,1605,1605
217690,1606,1606,1606
217691,1610,1610,1610
217692,1614,1614,1614
217693,1612,1612,1612
217695,1616,1616,1616
217696,1615,1615,1615
217697,1615,1615,1615
217698,1616,1616,1616
217699,1617,1617,1617
217700,1616,1616,1616
217701,1616,1616,1616
217702,1617,1617,1617
217703,1616,1616,1616
217704,1613,1613,1613
217706,1631,1631,1631
217707,1630,1630,1630
217708,1633,1633,1633
217709,1634,1634,1634
217710,1635,1635,1635
217711,1636,1636,1636
217712,1618,1618,1618
217713,1622,1622,1622
217714,1622,1622,1622
217715,1626,1626,1626
217792,1716,1716,1716
217793,1708,1708,1708
217794,1706,1706,1706
217795,1709,1709,1709
217796,1711,1711,1711
217797,1706,1706,1706
217798,1709,1709,1709
217799,1707,1707,1707
217800,1713,1713,1713
217801,1718,1718,1718
217803,1712,1712,1712
217804,1712,1712,1712
217805,1710,1710,1710
217806,1719,1719,1719
217807,1728,1728,1728
217808,1727,1727,1727
217809,1727,1727,1727
217810,1720,1720,1720
217811,1721,1721,1721
217812,1719,1719,1719
217814,1679,1679,1679
217815,1675,1675,1675
217816,1664,1664,1664
217817,1671,1671,1671
217818,1705,1705,1705
217819,1699,1699,1699
217820,1696,1696,1696
217821,1687,1687,1687
217822,1690,1690,1690
217823,1684,1684,1684
217825,1678,1678,1678
217826,1674,1674,1674
217827,1673,1673,1673
217828,1669,1669,1669
217829,1664,1664,1664
217830,1674,1674,1674
217831,1669,1669,1669
217832,1678,1678,1678
217833,1673,1673,1673
217834,1674,1674,1674
217837,1649,1649,1649
217838,1646,1646,1646
217839,1642,1642,1642
217840,1637,1637,1637
217841,1642,1642,1642
217842,1636,1636,1636
217843,1635,1635,1635
217844,1652,1652,1652
217845,1649,1649,1649
217846,1648,1648,1648
217851,1622,1622,1622
217852,1630,1630,1630
217853,1629,1629,1629
217854,1627,1627,1627
217855,1628,1628,1628
217856,1623,1623,1623
217857,1627,1627,1627
217858,1622,1622,1622
217859,1615,1615,1615
217860,1611,1611,1611
217862,1650,1650,1650
217863,1649,1649,1649
217864,1615,1615,1615
217865,1617,1617,1617
217866,1620,1620,1620
217867,1630,1630,1630
217868,1637,1637,1637
217869,1641,1641,1641
217870,1647,1647,1647
217871,1648,1648,1648
217874,1646,1646,1646
217875,1643,1643,1643
217876,1643,1643,1643
217877,1641,1641,1641
217878,1649,1649,1649
217879,1648,1648,1648
217880,1648,1648,1648
217881,1648,1648,1648
217882,1646,1646,1646
217883,1645,1645,1645
217888,1649,1649,1649
217889,1650,1650,1650
217890,1653,1653,1653
217891,1655,1655,1655
217892,1654,1654,1654
217893,1652,1652,1652
217894,1650,1650,1650
217895,1642,1642,1642
217896,1648,1648,1648
217897,1648,1648,1648
217900,1643,1643,1643
217901,1647,1647,1647
217902,1643,1643,1643
217903,1651,1651,1651
217904,1651,1651,1651
217905,1658,1658,1658
217906,1656,1656,1656
217907,1655,1655,1655
217908,1658,1658,1658
217909,1651,1651,1651
217913,1659,1659,1659
217914,1658,1658,1658
217915,1651,1651,1651
217916,1670,1670,1670
217917,1668,1668,1668
217918,1671,1671,1671
217919,1671,1671,1671
217920,1669,1669,1669
217921,1663,1663,1663
217922,1659,1659,1659
217924,1633,1633,1633
217925,1629,1629,1629
217926,1627,1627,1627
217927,1630,1630,1630
217928,1647,1647,1647
217929,1645,1645,1645
217930,1643,1643,1643
217931,1638,1638,1638
217932,1634,1634,1634
217933,1633,1633,1633
217935,1630,1630,1630
217936,1633,1633,1633
217937,1634,1634,1634
217938,1632,1632,1632
217939,1632,1632,1632
217940,1623,1623,1623
217941,1627,1627,1627
217942,1627,1627,1627
217943,1627,1627,1627
217944,1633,1633,1633
217947,1646,1646,1646
217948,1646,1646,1646
217949,1637,1637,1637
217950,1645,1645,1645
217951,1635,1635,1635
217952,1642,1642,1642
217953,1648,1648,1648
217954,1643,1643,1643
217955,1642,1642,1642
217956,1643,1643,1643
217959,1636,1636,1636
217960,1634,1634,1634
217961,1628,1628,1628
217962,1628,1628,1628
217963,1629,1629,1629
217964,1626,1626,1626
217965,1634,1634,1634
217966,1634,1634,1634
217967,1638,1638,1638
217968,1633,1633,1633
217970,1639,1639,1639
217971,1639,1639,1639
217972,1642,1642,1642
217973,1643,1643,1643
217974,1642,1642,1642
217975,1642,1642,1642
217976,1642,1642,1642
217977,1642,1642,1642
217978,1640,1640,1640
217979,1638,1638,1638
217986,1664,1664,1664
217987,1663,1663,1663
217988,1664,1664,1664
217989,1663,1663,1663
217990,1666,1666,1666
217991,1658,1658,1658
217992,1662,1662,1662
217993,1661,1661,1661
217994,1662,1662,1662
217995,1662,1662,1662
217998,1680,1680,1680
217999,1683,1683,1683
218000,1685,1685,1685
218001,1687,1687,1687
218002,1684,1684,1684
218003,1685,1685,1685
218004,1682,1682,1682
218005,1682,1682,1682
218006,1680,1680,1680
218007,1681,1681,1681
218053,1698,1698,1698
218054,1704,1704,1704
218055,1713,1713,1713
218056,1712,1712,1712
218057,1709,1709,1709
218058,1709,1709,1709
218059,1709,1709,1709
218060,1703,1703,1703
218061,1697,1697,1697
218062,1701,1701,1701
218064,1690,1690,1690
218065,1687,1687,1687
218066,1691,1691,1691
218067,1693,1693,1693
218068,1691,1691,1691
218069,1693,1693,1693
218070,1689,1689,1689
218071,1690,1690,1690
218072,1691,1691,1691
218073,1687,1687,1687
218075,1698,1698,1698
218076,1697,1697,1697
218077,1693,1693,1693
218078,1695,1695,1695
218079,1693,1693,1693
218080,1699,1699,1699
218081,1696,1696,1696
218082,1696,1696,1696
218083,1700,1700,1700
218084,1693,1693,1693
218087,1690,1690,1690
218088,1686,1686,1686
218089,1690,1690,1690
218090,1696,1696,1696
218091,1695,1695,1695
218092,1697,1697,1697
218093,1689,1689,1689
218094,1683,1683,1683
218095,1680,1680,1680
218096,1686,1686,1686
218099,1709,1709,1709
218100,1717,1717,1717
218101,1712,1712,1712
218102,1699,1699,1699
218103,1712,1712,1712
218104,1711,1711,1711
218105,1712,1712,1712
218106,1710,1710,1710
218107,1703,1703,1703
218108,1706,1706,1706
218110,1710,1710,1710
218111,1712,1712,1712
218112,1709,1709,1709
218113,1707,1707,1707
218114,1708,1708,1708
218115,1706,1706,1706
218116,1706,1706,1706
218117,1708,1708,1708
218118,1701,1701,1701
218119,1701,1701,1701
218127,1686,1686,1686
218128,1683,1683,1683
218129,1681,1681,1681
218130,1680,1680,1680
218131,1681,1681,1681
218132,1680,1680,1680
218133,1696,1696,1696
218134,1692,1692,1692
218135,1691,1691,1691
218136,1684,1684,1684
218139,1665,1665,1665
218140,1666,1666,1666
218141,1664,1664,1664
218142,1663,1663,1663
218143,1663,1663,1663
218144,1664,1664,1664
218145,1664,1664,1664
218146,1664,1664,1664
218147,1669,1669,1669
218148,1669,1669,1669
218150,1657,1657,1657
218151,1658,1658,1658
218152,1653,1653,1653
218153,1654,1654,1654
218154,1649,1649,1649
218155,1649,1649,1649
218156,1651,1651,1651
218157,1648,1648,1648
218158,1647,1647,1647
218159,1647,1647,1647
218161,1628,1628,1628
218162,1647,1647,1647
218163,1647,1647,1647
218164,1643,1643,1643
218165,1645,1645,1645
218166,1641,1641,1641
218167,1638,1638,1638
218168,1638,1638,1638
218169,1633,1633,1633
218170,1633,1633,1633
218175,1613,1613,1613
218176,1630,1630,1630
218177,1611,1611,1611
218178,1621,1621,1621
218179,1627,1627,1627
218180,1623,1623,1623
218181,1622,1622,1622
218182,1620,1620,1620
218183,1616,1616,1616
218184,1625,1625,1625
218188,1629,1629,1629
218189,1629,1629,1629
218190,1631,1631,1631
218191,1644,1644,1644
218192,1630,1630,1630
218193,1637,1637,1637
218194,1629,1629,1629
218195,1627,1627,1627
218196,1624,1624,1624
218197,1627,1627,1627
218199,1622,1622,1622
218200,1616,1616,1616
218201,1616,1616,1616
218202,1616,1616,1616
218203,1619,1619,1619
218204,1627,1627,1627
218205,1631,1631,1631
218206,1632,1632,1632
218207,1642,1642,1642
218208,1622,1622,1622
218210,1648,1648,1648
218211,1649,1649,1649
218212,1655,1655,1655
218213,1654,1654,1654
218214,1658,1658,1658
218215,1658,1658,1658
218216,1655,1655,1655
218217,1657,1657,1657
218218,1655,1655,1655
218219,1657,1657,1657
218221,1646,1646,1646
218222,1649,1649,1649
218223,1648,1648,1648
218224,1648,1648,1648
218225,1647,1647,1647
218226,1643,1643,1643
218227,1648,1648,1648
218228,1644,1644,1644
218229,1645,1645,1645
218230,1643,1643,1643
218233,1616,1616,1616
218234,1614,1614,1614
218235,1645,1645,1645
218236,1639,1639,1639
218237,1639,1639,1639
218238,1636,1636,1636
218239,1623,1623,1623
218240,1631,1631,1631
218241,1622,1622,1622
218242,1617,1617,1617
218245,1598,1598,1598
218246,1595,1595,1595
218247,1594,1594,1594
218248,1597,1597,1597
218249,1593,1593,1593
218250,1603,1603,1603
218251,1600,1600,1600
218252,1600,1600,1600
218253,1606,1606,1606
218254,1594,1594,1594
218257,1595,1595,1595
218258,1591,1591,1591
218259,1593,1593,1593
218260,1594,1594,1594
218261,1597,1597,1597
218262,1595,1595,1595
218263,1600,1600,1600
218264,1595,1595,1595
218265,1595,1595,1595
218266,1594,1594,1594
218268,1607,1607,1607
218269,1616,1616,1616
218270,1616,1616,1616
218271,1614,1614,1614
218272,1618,1618,1618
218273,1623,1623,1623
218274,1617,1617,1617
218275,1621,1621,1621
218276,1605,1605,1605
218277,1604,1604,1604
218281,1630,1630,1630
218282,1631,1631,1631
218283,1633,1633,1633
218284,1637,1637,1637
218285,1644,1644,1644
218286,1649,1649,1649
218287,1645,1645,1645
218288,1658,1658,1658
218289,1657,1657,1657
218290,1662,1662,1662
218294,1650,1650,1650
218295,1650,1650,1650
218296,1648,1648,1648
218297,1663,1663,1663
218298,1665,1665,1665
218299,1662,1662,1662
218300,1662,1662,1662
218301,1654,1654,1654
218302,1651,1651,1651
218303,1654,1654,1654
218305,1648,1648,1648
218306,1648,1648,1648
218307,1649,1649,1649
218308,1647,1647,1647
218309,1646,1646,1646
218310,1648,1648,1648
218311,1647,1647,1647
218312,1650,1650,1650
218313,1650,1650,1650
218314,1653,1653,1653
218316,1631,1631,1631
218317,1624,1624,1624
218318,1616,1616,1616
218319,1616,1616,1616
218320,1612,1612,1612
218321,1610,1610,1610
218322,1643,1643,1643
218323,1637,1637,1637
218324,1617,1617,1617
218325,1634,1634,1634
218327,1617,1617,1617
218328,1621,1621,1621
218329,1621,1621,1621
218330,1623,1623,1623
218331,1623,1623,1623
218332,1622,1622,1622
218333,1618,1618,1618
218334,1611,1611,1611
218335,1616,1616,1616
218336,1621,1621,1621
218345,1626,1626,1626
218346,1633,1633,1633
218347,1637,1637,1637
218348,1641,1641,1641
218349,1615,1615,1615
218350,1617,1617,1617
218351,1618,1618,1618
218352,1616,1616,1616
218353,1619,1619,1619
218354,1620,1620,1620
218356,1643,1643,1643
218357,1647,1647,1647
218358,1645,1645,1645
218359,1647,1647,1647
218360,1647,1647,1647
218361,1645,1645,1645
218362,1643,1643,1643
218363,1648,1648,1648
218364,1641,1641,1641
218365,1643,1643,1643
218367,1644,1644,1644
218368,1639,1639,1639
218369,1639,1639,1639
218370,1639,1639,1639
218371,1639,1639,1639
218372,1643,1643,1643
218373,1643,1643,1643
218374,1643,1643,1643
218375,1626,1626,1626
218376,1644,1644,1644
218378,1646,1646,1646
218379,1639,1639,1639
218380,1642,1642,1642
218381,1641,1641,1641
218382,1638,1638,1638
218383,1634,1634,1634
218384,1631,1631,1631
218385,1629,1629,1629
218386,1647,1647,1647
218387,1645,1645,1645
218396,1632,1632,1632
218397,1639,1639,1639
218398,1639,1639,1639
218399,1642,1642,1642
218400,1636,1636,1636
218401,1635,1635,1635
218402,1635,1635,1635
218403,1632,1632,1632
218404,1633,1633,1633
218405,1639,1639,1639
218407,1631,1631,1631
218408,1632,1632,1632
218409,1635,1635,1635
218410,1633,1633,1633
218411,1630,1630,1630
218412,1630,1630,1630
218413,1631,1631,1631
218414,1632,1632,1632
218415,1621,1621,1621
218416,1630,1630,1630
218418,1621,1621,1621
218419,1620,1620,1620
218420,1616,1616,1616
218421,1616,1616,1616
218422,1614,1614,1614
218423,1613,1613,1613
218424,1613,1613,1613
218425,1614,1614,1614
218426,1625,1625,1625
218427,1623,1623,1623
218429,1610,1610,1610
218430,1606,1606,1606
218431,1623,1623,1623
218432,1611,1611,1611
218433,1611,1611,1611
218434,1613,1613,1613
218435,1613,1613,1613
218436,1616,1616,1616
218437,1610,1610,1610
218438,1614,1614,1614
218441,1603,1603,1603
218442,1595,1595,1595
218443,1599,1599,1599
218444,1600,1600,1600
218445,1605,1605,1605
218446,1612,1612,1612
218447,1616,1616,1616
218448,1623,1623,1623
218449,1627,1627,1627
218450,1635,1635,1635
218453,1632,1632,1632
218454,1632,1632,1632
218455,1631,1631,1631
218456,1635,1635,1635
218457,1641,1641,1641
218458,1639,1639,1639
218459,1637,1637,1637
218460,1635,1635,1635
218461,1634,1634,1634
218462,1636,1636,1636
218464,1630,1630,1630
218465,1631,1631,1631
218466,1629,1629,1629
218467,1623,1623,1623
218468,1633,1633,1633
218469,1629,1629,1629
218470,1631,1631,1631
218471,1635,1635,1635
218472,1634,1634,1634
218473,1630,1630,1630
218475,1609,1609,1609
218476,1611,1611,1611
218477,1616,1616,1616
218478,1617,1617,1617
218479,1616,1616,1616
218480,1618,1618,1618
218481,1616,1616,1616
218482,1616,1616,1616
218483,1611,1611,1611
218484,1610,1610,1610
218486,1626,1626,1626
218487,1623,1623,1623
218488,1623,1623,1623
218489,1617,1617,1617
218490,1618,1618,1618
218491,1617,1617,1617
218492,1620,1620,1620
218493,1625,1625,1625
218494,1627,1627,1627
218495,1629,1629,1629
218498,1616,1616,1616
218499,1634,1634,1634
218500,1635,1635,1635
218501,1634,1634,1634
218502,1639,1639,1639
218503,1634,1634,1634
218504,1641,1641,1641
218505,1639,1639,1639
218506,1626,1626,1626
218507,1630,1630,1630
218510,1648,1648,1648
218511,1648,1648,1648
218512,1651,1651,1651
218513,1653,1653,1653
218514,1653,1653,1653
218515,1655,1655,1655
218516,1654,1654,1654
218517,1658,1658,1658
218518,1655,1655,1655
218519,1655,1655,1655
218529,1662,1662,1662
218530,1662,1662,1662
218531,1664,1664,1664
218532,1663,1663,1663
218533,1667,1667,1667
218534,1675,1675,1675
218535,1673,1673,1673
218536,1680,1680,1680
218537,1651,1651,1651
218538,1657,1657,1657
218540,1687,1687,1687
218541,1693,1693,1693
218542,1700,1700,1700
218543,1696,1696,1696
218544,1701,1701,1701
218545,1705,1705,1705
218546,1703,1703,1703
218547,1707,1707,1707
218548,1699,1699,1699
218549,1701,1701,1701
218551,1744,1744,1744
218552,1700,1700,1700
218553,1707,1707,1707
218554,1712,1712,1712
218555,1718,1718,1718
218556,1726,1726,1726
218557,1729,1729,1729
218558,1734,1734,1734
218559,1741,1741,1741
218560,1740,1740,1740
218563,1737,1737,1737
218564,1735,1735,1735
218565,1733,1733,1733
218566,1744,1744,1744
218567,1744,1744,1744
218568,1744,1744,1744
218569,1743,1743,1743
218570,1743,1743,1743
218571,1744,1744,1744
218572,1735,1735,1735
218575,1723,1723,1723
218576,1730,1730,1730
218577,1727,1727,1727
218578,1742,1742,1742
218579,1730,1730,1730
218580,1725,1725,1725
218581,1719,1719,1719
218582,1722,1722,1722
218583,1715,1715,1715
218584,1721,1721,1721
218587,1758,1758,1758
218588,1757,1757,1757
218589,1760,1760,1760
218590,1763,1763,1763
218591,1763,1763,1763
218592,1763,1763,1763
218593,1760,1760,1760
218594,1751,1751,1751
218595,1749,1749,1749
218596,1749,1749,1749
218600,1772,1772,1772
218601,1761,1761,1761
218602,1760,1760,1760
218603,1763,1763,1763
218604,1763,1763,1763
218605,1759,1759,1759
218606,1763,1763,1763
218607,1763,1763,1763
218608,1765,1765,1765
218609,1758,1758,1758
218611,1763,1763,1763
218612,1771,1771,1771
218613,1776,1776,1776
218614,1773,1773,1773
218615,1775,1775,1775
218616,1775,1775,1775
218617,1776,1776,1776
218618,1772,1772,1772
218619,1766,1766,1766
218620,1759,1759,1759
218623,1727,1727,1727
218624,1741,1741,1741
218625,1758,1758,1758
218626,1756,1756,1756
218627,1754,1754,1754
218628,1750,1750,1750
218629,1751,1751,1751
218630,1750,1750,1750
218631,1741,1741,1741
218632,1754,1754,1754
218635,1711,1711,1711
218636,1712,1712,1712
218637,1706,1706,1706
218638,1702,1702,1702
218639,1701,1701,1701
218640,1728,1728,1728
218641,1726,1726,1726
218642,1723,1723,1723
218643,1716,1716,1716
218644,1713,1713,1713
218646,1691,1691,1691
218647,1683,1683,1683
218648,1682,1682,1682
218649,1681,1681,1681
218650,1682,1682,1682
218651,1683,1683,1683
218652,1694,1694,1694
218653,1697,1697,1697
218654,1692,1692,1692
218655,1685,1685,1685
218657,1679,1679,1679
218658,1679,1679,1679
218659,1678,1678,1678
218660,1678,1678,1678
218661,1693,1693,1693
218662,1697,1697,1697
218663,1701,1701,1701
218664,1685,1685,1685
218665,1680,1680,1680
218666,1680,1680,1680
218668,1725,1725,1725
218669,1728,1728,1728
218670,1731,1731,1731
218671,1728,1728,1728
218672,1731,1731,1731
218673,1729,1729,1729
218674,1729,1729,1729
218675,1729,1729,1729
218676,1715,1715,1715
218677,1720,1720,1720
218685,1705,1705,1705
218686,1707,1707,1707
218687,1703,1703,1703
218688,1701,1701,1701
218689,1712,1712,1712
218690,1713,1713,1713
218691,1711,1711,1711
218692,1711,1711,1711
218693,1708,1708,1708
218694,1709,1709,1709
218697,1680,1680,1680
218698,1680,1680,1680
218699,1677,1677,1677
218700,1675,1675,1675
218701,1677,1677,1677
218702,1674,1674,1674
218703,1696,1696,1696
218704,1695,1695,1695
218705,1689,1689,1689
218706,1684,1684,1684
218708,1679,1679,1679
218709,1680,1680,1680
218710,1681,1681,1681
218711,1683,1683,1683
218712,1687,1687,1687
218713,1686,1686,1686
218714,1693,1693,1693
218715,1697,1697,1697
218716,1675,1675,1675
218717,1680,1680,1680
218719,1705,1705,1705
218720,1709,1709,1709
218721,1710,1710,1710
218722,1712,1712,1712
218723,1712,1712,1712
218724,1710,1710,1710
218725,1712,1712,1712
218726,1711,1711,1711
218727,1709,1709,1709
218728,1705,1705,1705
218731,1690,1690,1690
218732,1685,1685,1685
218733,1708,1708,1708
218734,1706,1706,1706
218735,1703,1703,1703
218736,1701,1701,1701
218737,1697,1697,1697
218738,1695,1695,1695
218739,1686,1686,1686
218740,1683,1683,1683
218743,1682,1682,1682
218744,1682,1682,1682
218745,1680,1680,1680
218746,1680,1680,1680
218747,1679,1679,1679
218748,1677,1677,1677
218749,1678,1678,1678
218750,1678,1678,1678
218751,1680,1680,1680
218752,1681,1681,1681
218760,1665,1665,1665
218761,1678,1678,1678
218762,1663,1663,1663
218763,1669,1669,1669
218764,1664,1664,1664
218765,1662,1662,1662
218766,1661,1661,1661
218767,1662,1662,1662
218768,1662,1662,1662
218769,1669,1669,1669
218772,1681,1681,1681
218773,1680,1680,1680
218774,1678,1678,1678
218775,1680,1680,1680
218776,1682,1682,1682
218777,1683,1683,1683
218778,1683,1683,1683
218779,1683,1683,1683
218780,1683,1683,1683
218781,1682,1682,1682
218783,1664,1664,1664
218784,1666,1666,1666
218785,1667,1667,1667
218786,1669,1669,1669
218787,1675,1675,1675
218788,1669,1669,1669
218789,1668,1668,1668
218790,1669,1669,1669
218791,1664,1664,1664
218792,1664,1664,1664
218794,1685,1685,1685
218795,1687,1687,1687
218796,1690,1690,1690
218797,1690,1690,1690
218798,1673,1673,1673
218799,1671,1671,1671
218800,1678,1678,1678
218801,1680,1680,1680
218802,1682,1682,1682
218803,1680,1680,1680
218806,1711,1711,1711
218807,1712,1712,1712
218808,1715,1715,1715
218809,1714,1714,1714
218810,1712,1712,1712
218811,1699,1699,1699
218812,1698,1698,1698
218813,1702,1702,1702
218814,1698,1698,1698
218815,1708,1708,1708
218819,1711,1711,1711
218820,1711,1711,1711
218821,1711,1711,1711
218822,1708,1708,1708
218823,1712,1712,1712
218824,1709,1709,1709
218825,1711,1711,1711
218826,1712,1712,1712
218827,1712,1712,1712
218828,1710,1710,1710
218830,1711,1711,1711
218831,1706,1706,1706
218832,1709,1709,1709
218833,1711,1711,1711
218834,1707,1707,1707
218835,1706,1706,1706
218836,1710,1710,1710
218837,1707,1707,1707
218838,1710,1710,1710
218839,1712,1712,1712
218841,1712,1712,1712
218842,1711,1711,1711
218843,1709,1709,1709
218844,1711,1711,1711
218845,1711,1711,1711
218846,1712,1712,1712
218847,1706,1706,1706
218848,1709,1709,1709
218849,1712,1712,1712
218850,1710,1710,1710
218852,1712,1712,1712
218853,1713,1713,1713
218854,1712,1712,1712
218855,1712,1712,1712
218856,1712,1712,1712
218857,1713,1713,1713
218858,1713,1713,1713
218859,1712,1712,1712
218860,1712,1712,1712
218861,1717,1717,1717
218864,1717,1717,1717
218865,1712,1712,1712
218866,1714,1714,1714
218867,1712,1712,1712
218868,1707,1707,1707
218869,1707,1707,1707
218870,1711,1711,1711
218871,1712,1712,1712
218872,1710,1710,1710
218873,1712,1712,1712
218876,1708,1708,1708
218877,1705,1705,1705
218878,1701,1701,1701
218879,1691,1691,1691
218880,1689,1689,1689
218881,1680,1680,1680
218882,1712,1712,1712
218883,1711,1711,1711
218884,1713,1713,1713
218885,1712,1712,1712
218887,1695,1695,1695
218888,1697,1697,1697
218889,1699,1699,1699
218890,1705,1705,1705
218891,1702,1702,1702
218892,1706,1706,1706
218893,1706,1706,1706
218894,1708,1708,1708
218895,1691,1691,1691
218896,1694,1694,1694
218901,1710,1710,1710
218902,1705,1705,1705
218903,1709,1709,1709
218904,1712,1712,1712
218905,1711,1711,1711
218906,1713,1713,1713
218907,1712,1712,1712
218908,1712,1712,1712
218909,1713,1713,1713
218910,1712,1712,1712
218914,1726,1726,1726
218915,1723,1723,1723
218916,1723,1723,1723
218917,1722,1722,1722
218918,1721,1721,1721
218919,1726,1726,1726
218920,1727,1727,1727
218921,1733,1733,1733
218922,1730,1730,1730
218923,1729,1729,1729
218927,1728,1728,1728
218928,1727,1727,1727
218929,1723,1723,1723
218930,1722,1722,1722
218931,1723,1723,1723
218932,1721,1721,1721
218933,1723,1723,1723
218934,1723,1723,1723
218935,1721,1721,1721
218936,1728,1728,1728
218938,1712,1712,1712
218939,1711,1711,1711
218940,1709,1709,1709
218941,1706,1706,1706
218942,1703,1703,1703
218943,1701,1701,1701
218944,1701,1701,1701
218945,1697,1697,1697
218946,1715,1715,1715
218947,1715,1715,1715
218957,1697,1697,1697
218958,1700,1700,1700
218959,1697,1697,1697
218960,1707,1707,1707
218961,1709,1709,1709
218962,1710,1710,1710
218963,1689,1689,1689
218964,1692,1692,1692
218965,1693,1693,1693
218966,1693,1693,1693
218968,1715,1715,1715
218969,1716,1716,1716
218970,1718,1718,1718
218971,1718,1718,1718
218972,1722,1722,1722
218973,1720,1720,1720
218974,1728,1728,1728
218975,1728,1728,1728
218976,1713,1713,1713
218977,1716,1716,1716
218979,1737,1737,1737
218980,1735,1735,1735
218981,1739,1739,1739
218982,1739,1739,1739
218983,1739,1739,1739
218984,1747,1747,1747
218985,1741,1741,1741
218986,1742,1742,1742
218987,1737,1737,1737
218988,1733,1733,1733
218990,1731,1731,1731
218991,1728,1728,1728
218992,1731,1731,1731
218993,1731,1731,1731
218994,1729,1729,1729
218995,1729,1729,1729
218996,1734,1734,1734
218997,1730,1730,1730
218998,1737,1737,1737
218999,1736,1736,1736
219004,1740,1740,1740
219005,1751,1751,1751
219006,1754,1754,1754
219007,1723,1723,1723
219008,1726,1726,1726
219009,1723,1723,1723
219010,1718,1718,1718
219011,1725,1725,1725
219012,1731,1731,1731
219013,1733,1733,1733
219016,1744,1744,1744
219017,1741,1741,1741
219018,1735,1735,1735
219019,1728,1728,1728
219020,1723,1723,1723
219021,1721,1721,1721
219022,1759,1759,1759
219023,1756,1756,1756
219024,1754,1754,1754
219025,1747,1747,1747
219033,1709,1709,1709
219034,1712,1712,1712
219035,1709,1709,1709
219036,1712,1712,1712
219037,1710,1710,1710
219038,1712,1712,1712
219039,1712,1712,1712
219040,1712,1712,1712
219041,1711,1711,1711
219042,1707,1707,1707
219074,1712,1712,1712
219075,1711,1711,1711
219076,1711,1711,1711
219077,1717,1717,1717
219078,1711,1711,1711
219079,1695,1695,1695
219080,1710,1710,1710
219081,1707,1707,1707
219082,1706,1706,1706
219083,1706,1706,1706
219086,1712,1712,1712
219087,1712,1712,1712
219088,1713,1713,1713
219089,1716,1716,1716
219090,1718,1718,1718
219091,1723,1723,1723
219092,1714,1714,1714
219093,1719,1719,1719
219094,1713,1713,1713
219095,1711,1711,1711
219097,1727,1727,1727
219098,1726,1726,1726
219099,1724,1724,1724
219100,1726,1726,1726
219101,1723,1723,1723
219102,1717,1717,1717
219103,1714,1714,1714
219104,1731,1731,1731
219105,1727,1727,1727
219106,1729,1729,1729
219110,1712,1712,1712
219111,1713,1713,1713
219112,1714,1714,1714
219113,1721,1721,1721
219114,1712,1712,1712
219115,1712,1712,1712
219116,1713,1713,1713
219117,1712,1712,1712
219118,1711,1711,1711
219119,1712,1712,1712
219125,1708,1708,1708
219126,1712,1712,1712
219127,1714,1714,1714
219128,1709,1709,1709
219129,1695,1695,1695
219130,1700,1700,1700
219131,1707,1707,1707
219132,1711,1711,1711
219133,1713,1713,1713
219134,1713,1713,1713
219138,1684,1684,1684
219139,1682,1682,1682
219140,1680,1680,1680
219141,1678,1678,1678
219142,1677,1677,1677
219143,1677,1677,1677
219144,1670,1670,1670
219145,1669,1669,1669
219146,1697,1697,1697
219147,1687,1687,1687
219149,1666,1666,1666
219150,1666,1666,1666
219151,1664,1664,1664
219152,1668,1668,1668
219153,1664,1664,1664
219154,1669,1669,1669
219155,1667,1667,1667
219156,1671,1671,1671
219157,1671,1671,1671
219158,1666,1666,1666
219160,1680,1680,1680
219161,1682,1682,1682
219162,1682,1682,1682
219163,1688,1688,1688
219164,1690,1690,1690
219165,1690,1690,1690
219166,1691,1691,1691
219167,1694,1694,1694
219168,1686,1686,1686
219169,1685,1685,1685
219176,1677,1677,1677
219177,1671,1671,1671
219178,1678,1678,1678
219179,1671,1671,1671
219180,1676,1676,1676
219181,1674,1674,1674
219182,1675,1675,1675
219183,1680,1680,1680
219184,1678,1678,1678
219185,1677,1677,1677
219188,1671,1671,1671
219189,1673,1673,1673
219190,1675,1675,1675
219191,1670,1670,1670
219192,1673,1673,1673
219193,1671,1671,1671
219194,1668,1668,1668
219195,1665,1665,1665
219196,1670,1670,1670
219197,1666,1666,1666
219199,1658,1658,1658
219200,1661,1661,1661
219201,1654,1654,1654
219202,1651,1651,1651
219203,1650,1650,1650
219204,1648,1648,1648
219205,1648,1648,1648
219206,1644,1644,1644
219207,1648,1648,1648
219208,1647,1647,1647
219212,1665,1665,1665
219213,1648,1648,1648
219214,1650,1650,1650
219215,1653,1653,1653
219216,1657,1657,1657
219217,1664,1664,1664
219218,1659,1659,1659
219219,1666,1666,1666
219220,1666,1666,1666
219221,1665,1665,1665
219223,1649,1649,1649
219224,1648,1648,1648
219225,1647,1647,1647
219226,1662,1662,1662
219227,1661,1661,1661
219228,1651,1651,1651
219229,1650,1650,1650
219230,1654,1654,1654
219231,1648,1648,1648
219232,1648,1648,1648
219235,1650,1650,1650
219236,1650,1650,1650
219237,1664,1664,1664
219238,1664,1664,1664
219239,1648,1648,1648
219240,1650,1650,1650
219241,1648,1648,1648
219242,1648,1648,1648
219243,1649,1649,1649
219244,1653,1653,1653
219246,1659,1659,1659
219247,1661,1661,1661
219248,1658,1658,1658
219249,1662,1662,1662
219250,1667,1667,1667
219251,1675,1675,1675
219252,1666,1666,1666
219253,1668,1668,1668
219254,1668,1668,1668
219255,1664,1664,1664
219264,1649,1649,1649
219265,1654,1654,1654
219266,1651,1651,1651
219267,1654,1654,1654
219268,1650,1650,1650
219269,1653,1653,1653
219270,1650,1650,1650
219271,1648,1648,1648
219272,1654,1654,1654
219273,1653,1653,1653
219279,1642,1642,1642
219280,1635,1635,1635
219281,1632,1632,1632
219282,1634,1634,1634
219283,1633,1633,1633
219284,1635,1635,1635
219285,1635,1635,1635
219286,1634,1634,1634
219287,1648,1648,1648
219288,1639,1639,1639
219290,1631,1631,1631
219291,1632,1632,1632
219292,1631,1631,1631
219293,1631,1631,1631
219294,1630,1630,1630
219295,1631,1631,1631
219296,1635,1635,1635
219297,1629,1629,1629
219298,1626,1626,1626
219299,1630,1630,1630
219305,1648,1648,1648
219306,1648,1648,1648
219307,1658,1658,1658
219308,1662,1662,1662
219309,1649,1649,1649
219310,1637,1637,1637
219311,1644,1644,1644
219312,1645,1645,1645
219313,1646,1646,1646
219314,1650,1650,1650
219318,1653,1653,1653
219319,1659,1659,1659
219320,1659,1659,1659
219321,1661,1661,1661
219322,1662,1662,1662
219323,1667,1667,1667
219324,1671,1671,1671
219325,1657,1657,1657
219326,1662,1662,1662
219327,1659,1659,1659
219329,1681,1681,1681
219330,1683,1683,1683
219331,1686,1686,1686
219332,1684,1684,1684
219333,1682,1682,1682
219334,1680,1680,1680
219335,1680,1680,1680
219336,1680,1680,1680
219337,1671,1671,1671
219338,1679,1679,1679
219340,1666,1666,1666
219341,1662,1662,1662
219342,1659,1659,1659
219343,1659,1659,1659
219344,1651,1651,1651
219345,1651,1651,1651
219346,1651,1651,1651
219347,1649,1649,1649
219348,1656,1656,1656
219349,1650,1650,1650
219351,1648,1648,1648
219352,1655,1655,1655
219353,1655,1655,1655
219354,1652,1652,1652
219355,1651,1651,1651
219356,1650,1650,1650
219357,1648,1648,1648
219358,1646,1646,1646
219359,1648,1648,1648
219360,1648,1648,1648
219363,1639,1639,1639
219364,1646,1646,1646
219365,1648,1648,1648
219366,1648,1648,1648
219367,1643,1643,1643
219368,1646,1646,1646
219369,1646,1646,1646
219370,1648,1648,1648
219371,1645,1645,1645
219372,1638,1638,1638
219374,1661,1661,1661
219375,1667,1667,1667
219376,1674,1674,1674
219377,1675,1675,1675
219378,1635,1635,1635
219379,1636,1636,1636
219380,1639,1639,1639
219381,1643,1643,1643
219382,1648,1648,1648
219383,1653,1653,1653
219394,1663,1663,1663
219395,1659,1659,1659
219396,1657,1657,1657
219397,1662,1662,1662
219398,1663,1663,1663
219399,1663,1663,1663
219400,1663,1663,1663
219401,1667,1667,1667
219402,1664,1664,1664
219403,1661,1661,1661
219406,1653,1653,1653
219407,1649,1649,1649
219408,1650,1650,1650
219409,1650,1650,1650
219410,1647,1647,1647
219411,1647,1647,1647
219412,1659,1659,1659
219413,1659,1659,1659
219414,1650,1650,1650
219415,1658,1658,1658
219418,1631,1631,1631
219419,1629,1629,1629
219420,1633,1633,1633
219421,1628,1628,1628
219422,1626,1626,1626
219423,1623,1623,1623
219424,1619,1619,1619
219425,1647,1647,1647
219426,1640,1640,1640
219427,1639,1639,1639
219430,1618,1618,1618
219431,1622,1622,1622
219432,1618,1618,1618
219433,1627,1627,1627
219434,1623,1623,1623
219435,1617,1617,1617
219436,1619,1619,1619
219437,1620,1620,1620
219438,1616,1616,1616
219439,1617,1617,1617
219442,1591,1591,1591
219443,1591,1591,1591
219444,1603,1603,1603
219445,1605,1605,1605
219446,1605,1605,1605
219447,1603,1603,1603
219448,1600,1600,1600
219449,1598,1598,1598
219450,1595,1595,1595
219451,1597,1597,1597
219453,1584,1584,1584
219454,1584,1584,1584
219455,1585,1585,1585
219456,1594,1594,1594
219457,1592,1592,1592
219458,1593,1593,1593
219459,1593,1593,1593
219460,1587,1587,1587
219461,1589,1589,1589
219462,1586,1586,1586
219464,1598,1598,1598
219465,1595,1595,1595
219466,1590,1590,1590
219467,1591,1591,1591
219468,1584,1584,1584
219469,1587,1587,1587
219470,1590,1590,1590
219471,1591,1591,1591
219472,1590,1590,1590
219473,1597,1597,1597
219477,1580,1580,1580
219478,1578,1578,1578
219479,1574,1574,1574
219480,1570,1570,1570
219481,1570,1570,1570
219482,1562,1562,1562
219483,1570,1570,1570
219484,1584,1584,1584
219485,1581,1581,1581
219486,1583,1583,1583
219490,1579,1579,1579
219491,1583,1583,1583
219492,1587,1587,1587
219493,1593,1593,1593
219494,1598,1598,1598
219495,1597,1597,1597
219496,1602,1602,1602
219497,1599,1599,1599
219498,1601,1601,1601
219499,1606,1606,1606
219501,1597,1597,1597
219502,1606,1606,1606
219503,1604,1604,1604
219504,1600,1600,1600
219505,1599,1599,1599
219506,1596,1596,1596
219507,1595,1595,1595
219508,1595,1595,1595
219509,1597,1597,1597
219510,1588,1588,1588
219512,1598,1598,1598
219513,1601,1601,1601
219514,1599,1599,1599
219515,1594,1594,1594
219516,1591,1591,1591
219517,1594,1594,1594
219518,1595,1595,1595
219519,1593,1593,1593
219520,1594,1594,1594
219521,1598,1598,1598
219531,1607,1607,1607
219532,1610,1610,1610
219533,1614,1614,1614
219534,1610,1610,1610
219535,1611,1611,1611
219536,1614,1614,1614
219537,1616,1616,1616
219538,1616,1616,1616
219539,1616,1616,1616
219540,1615,1615,1615
219543,1613,1613,1613
219544,1615,1615,1615
219545,1614,1614,1614
219546,1610,1610,1610
219547,1610,1610,1610
219548,1607,1607,1607
219549,1605,1605,1605
219550,1606,1606,1606
219551,1605,1605,1605
219552,1610,1610,1610
219554,1615,1615,1615
219555,1613,1613,1613
219556,1612,1612,1612
219557,1607,1607,1607
219558,1616,1616,1616
219559,1618,1618,1618
219560,1616,1616,1616
219561,1618,1618,1618
219562,1615,1615,1615
219563,1616,1616,1616
219565,1601,1601,1601
219566,1600,1600,1600
219567,1600,1600,1600
219568,1600,1600,1600
219569,1600,1600,1600
219570,1604,1604,1604
219571,1602,1602,1602
219572,1600,1600,1600
219573,1603,1603,1603
219574,1603,1603,1603
219576,1586,1586,1586
219577,1584,1584,1584
219578,1584,1584,1584
219579,1584,1584,1584
219580,1587,1587,1587
219581,1584,1584,1584
219582,1587,1587,1587
219583,1595,1595,1595
219584,1594,1594,1594
219585,1586,1586,1586
219588,1601,1601,1601
219589,1600,1600,1600
219590,1603,1603,1603
219591,1614,1614,1614
219592,1618,1618,1618
219593,1619,1619,1619
219594,1627,1627,1627
219595,1589,1589,1589
219596,1589,1589,1589
219597,1600,1600,1600
219600,1634,1634,1634
219601,1635,1635,1635
219602,1630,1630,1630
219603,1632,1632,1632
219604,1631,1631,1631
219605,1631,1631,1631
219606,1633,1633,1633
219607,1628,1628,1628
219608,1627,1627,1627
219609,1626,1626,1626
219611,1618,1618,1618
219612,1631,1631,1631
219613,1629,1629,1629
219614,1634,1634,1634
219615,1639,1639,1639
219616,1639,1639,1639
219617,1642,1642,1642
219618,1635,1635,1635
219619,1631,1631,1631
219620,1630,1630,1630
219623,1643,1643,1643
219624,1641,1641,1641
219625,1616,1616,1616
219626,1617,1617,1617
219627,1617,1617,1617
219628,1620,1620,1620
219629,1621,1621,1621
219630,1632,1632,1632
219631,1639,1639,1639
219632,1639,1639,1639
219636,1627,1627,1627
219637,1619,1619,1619
219638,1618,1618,1618
219639,1619,1619,1619
219640,1616,1616,1616
219641,1616,1616,1616
219642,1635,1635,1635
219643,1636,1636,1636
219644,1638,1638,1638
219645,1632,1632,1632
219648,1603,1603,1603
219649,1603,1603,1603
219650,1603,1603,1603
219651,1601,1601,1601
219652,1600,1600,1600
219653,1595,1595,1595
219654,1591,1591,1591
219655,1590,1590,1590
219656,1611,1611,1611
219657,1613,1613,1613
219659,1582,1582,1582
219660,1584,1584,1584
219661,1584,1584,1584
219662,1584,1584,1584
219663,1588,1588,1588
219664,1590,1590,1590
219665,1590,1590,1590
219666,1597,1597,1597
219667,1596,1596,1596
219668,1589,1589,1589
219670,1597,1597,1597
219671,1599,1599,1599
219672,1600,1600,1600
219673,1600,1600,1600
219674,1596,1596,1596
219675,1600,1600,1600
219676,1602,1602,1602
219677,1600,1600,1600
219678,1600,1600,1600
219679,1599,1599,1599
219681,1574,1574,1574
219682,1594,1594,1594
219683,1586,1586,1586
219684,1581,1581,1581
219685,1582,1582,1582
219686,1577,1577,1577
219687,1565,1565,1565
219688,1575,1575,1575
219689,1574,1574,1574
219690,1569,1569,1569
219693,1568,1568,1568
219694,1566,1566,1566
219695,1575,1575,1575
219696,1575,1575,1575
219697,1573,1573,1573
219698,1578,1578,1578
219699,1578,1578,1578
219700,1574,1574,1574
219701,1570,1570,1570
219702,1570,1570,1570
219705,1581,1581,1581
219706,1578,1578,1578
219707,1579,1579,1579
219708,1576,1576,1576
219709,1576,1576,1576
219710,1577,1577,1577
219711,1579,1579,1579
219712,1579,1579,1579
219713,1577,1577,1577
219714,1582,1582,1582
219722,1587,1587,1587
219723,1566,1566,1566
219724,1562,1562,1562
219725,1564,1564,1564
219726,1567,1567,1567
219727,1567,1567,1567
219728,1570,1570,1570
219729,1568,1568,1568
219730,1584,1584,1584
219731,1579,1579,1579
219734,1581,1581,1581
219735,1574,1574,1574
219736,1556,1556,1556
219737,1575,1575,1575
219738,1585,1585,1585
219739,1584,1584,1584
219740,1583,1583,1583
219741,1578,1578,1578
219742,1580,1580,1580
219743,1579,1579,1579
219745,1561,1561,1561
219746,1558,1558,1558
219747,1566,1566,1566
219748,1562,1562,1562
219749,1565,1565,1565
219750,1568,1568,1568
219751,1579,1579,1579
219752,1575,1575,1575
219753,1571,1571,1571
219754,1571,1571,1571
219844,1643,1643,1643
219845,1642,1642,1642
219846,1646,1646,1646
219847,1637,1637,1637
219848,1642,1642,1642
219849,1641,1641,1641
219850,1644,1644,1644
219851,1641,1641,1641
219852,1645,1645,1645
219853,1643,1643,1643
219855,1653,1653,1653
219856,1654,1654,1654
219857,1651,1651,1651
219858,1653,1653,1653
219859,1654,1654,1654
219860,1646,1646,1646
219861,1647,1647,1647
219862,1663,1663,1663
219863,1651,1651,1651
219864,1654,1654,1654
219866,1655,1655,1655
219867,1650,1650,1650
219868,1655,1655,1655
219869,1648,1648,1648
219870,1647,1647,1647
219871,1648,1648,1648
219872,1654,1654,1654
219873,1651,1651,1651
219874,1658,1658,1658
219875,1655,1655,1655
219882,1616,1616,1616
219883,1615,1615,1615
219884,1616,1616,1616
219885,1616,1616,1616
219886,1616,1616,1616
219887,1616,1616,1616
219888,1616,1616,1616
219889,1616,1616,1616
219890,1622,1622,1622
219891,1618,1618,1618
219894,1607,1607,1607
219895,1610,1610,1610
219896,1605,1605,1605
219897,1601,1601,1601
219898,1614,1614,1614
219899,1611,1611,1611
219900,1607,1607,1607
219901,1609,1609,1609
219902,1610,1610,1610
219903,1606,1606,1606
219905,1615,1615,1615
219906,1616,1616,1616
219907,1616,1616,1616
219908,1619,1619,1619
219909,1621,1621,1621
219910,1612,1612,1612
219911,1607,1607,1607
219912,1613,1613,1613
219913,1615,1615,1615
219914,1615,1615,1615
219916,1625,1625,1625
219917,1625,1625,1625
219918,1621,1621,1621
219919,1626,1626,1626
219920,1626,1626,1626
219921,1627,1627,1627
219922,1622,1622,1622
219923,1621,1621,1621
219924,1625,1625,1625
219925,1623,1623,1623
219929,1636,1636,1636
219930,1636,1636,1636
219931,1633,1633,1633
219932,1634,1634,1634
219933,1637,1637,1637
219934,1639,1639,1639
219935,1637,1637,1637
219936,1638,1638,1638
219937,1635,1635,1635
219938,1635,1635,1635
219946,1630,1630,1630
219947,1630,1630,1630
219948,1631,1631,1631
219949,1627,1627,1627
219950,1626,1626,1626
219951,1629,1629,1629
219952,1627,1627,1627
219953,1627,1627,1627
219954,1630,1630,1630
219955,1628,1628,1628
219957,1597,1597,1597
219958,1591,1591,1591
219959,1587,1587,1587
219960,1599,1599,1599
219961,1584,1584,1584
219962,1583,1583,1583
219963,1584,1584,1584
219964,1609,1609,1609
219965,1602,1602,1602
219966,1603,1603,1603
219968,1581,1581,1581
219969,1583,1583,1583
219970,1584,1584,1584
219971,1584,1584,1584
219972,1584,1584,1584
219973,1585,1585,1585
219974,1584,1584,1584
219975,1585,1585,1585
219976,1584,1584,1584
219977,1584,1584,1584
219979,1589,1589,1589
219980,1600,1600,1600
219981,1596,1596,1596
219982,1598,1598,1598
219983,1600,1600,1600
219984,1601,1601,1601
219985,1603,1603,1603
219986,1607,1607,1607
219987,1602,1602,1602
219988,1601,1601,1601
219991,1600,1600,1600
219992,1598,1598,1598
219993,1598,1598,1598
219994,1601,1601,1601
219995,1606,1606,1606
219996,1602,1602,1602
219997,1615,1615,1615
219998,1613,1613,1613
219999,1613,1613,1613
220000,1617,1617,1617
220003,1594,1594,1594
220004,1589,1589,1589
220005,1587,1587,1587
220006,1616,1616,1616
220007,1611,1611,1611
220008,1607,1607,1607
220009,1603,1603,1603
220010,1598,1598,1598
220011,1598,1598,1598
220012,1595,1595,1595
220014,1597,1597,1597
220015,1599,1599,1599
220016,1601,1601,1601
220017,1605,1605,1605
220018,1589,1589,1589
220019,1584,1584,1584
220020,1584,1584,1584
220021,1587,1587,1587
220022,1593,1593,1593
220023,1595,1595,1595
220027,1636,1636,1636
220028,1638,1638,1638
220029,1643,1643,1643
220030,1648,1648,1648
220031,1642,1642,1642
220032,1655,1655,1655
220033,1652,1652,1652
220034,1620,1620,1620
220035,1630,1630,1630
220036,1631,1631,1631
220042,1692,1692,1692
220043,1697,1697,1697
220044,1675,1675,1675
220045,1671,1671,1671
220046,1680,1680,1680
220047,1682,1682,1682
220048,1684,1684,1684
220049,1683,1683,1683
220050,1695,1695,1695
220051,1695,1695,1695
220054,1680,1680,1680
220055,1679,1679,1679
220056,1678,1678,1678
220057,1678,1678,1678
220058,1702,1702,1702
220059,1691,1691,1691
220060,1687,1687,1687
220061,1681,1681,1681
220062,1685,1685,1685
220063,1680,1680,1680
220065,1670,1670,1670
220066,1674,1674,1674
220067,1674,1674,1674
220068,1675,1675,1675
220069,1677,1677,1677
220070,1678,1678,1678
220071,1671,1671,1671
220072,1671,1671,1671
220073,1677,1677,1677
220074,1671,1671,1671
220076,1667,1667,1667
220077,1667,1667,1667
220078,1669,1669,1669
220079,1675,1675,1675
220080,1675,1675,1675
220081,1678,1678,1678
220082,1675,1675,1675
220083,1672,1672,1672
220084,1673,1673,1673
220085,1670,1670,1670
220087,1685,1685,1685
220088,1687,1687,1687
220089,1681,1681,1681
220090,1683,1683,1683
220091,1712,1712,1712
220092,1680,1680,1680
220093,1679,1679,1679
220094,1680,1680,1680
220095,1680,1680,1680
220096,1682,1682,1682
220099,1675,1675,1675
220100,1678,1678,1678
220101,1676,1676,1676
220102,1680,1680,1680
220103,1678,1678,1678
220104,1674,1674,1674
220105,1678,1678,1678
220106,1679,1679,1679
220107,1693,1693,1693
220108,1675,1675,1675
220110,1697,1697,1697
220111,1699,1699,1699
220112,1697,1697,1697
220113,1701,1701,1701
220114,1699,1699,1699
220115,1698,1698,1698
220116,1695,1695,1695
220117,1699,1699,1699
220118,1703,1703,1703
220119,1706,1706,1706
220127,1741,1741,1741
220128,1744,1744,1744
220129,1738,1738,1738
220130,1738,1738,1738
220131,1730,1730,1730
220132,1728,1728,1728
220133,1748,1748,1748
220134,1744,1744,1744
220135,1742,1742,1742
220136,1741,1741,1741
220141,1691,1691,1691
220142,1707,1707,1707
220143,1703,1703,1703
220144,1701,1701,1701
220145,1698,1698,1698
220146,1698,1698,1698
220147,1694,1694,1694
220148,1697,1697,1697
220149,1693,1693,1693
220150,1691,1691,1691
220152,1695,1695,1695
220153,1686,1686,1686
220154,1689,1689,1689
220155,1693,1693,1693
220156,1698,1698,1698
220157,1696,1696,1696
220158,1695,1695,1695
220159,1693,1693,1693
220160,1696,1696,1696
220161,1694,1694,1694
220163,1667,1667,1667
220164,1664,1664,1664
220165,1666,1666,1666
220166,1684,1684,1684
220167,1681,1681,1681
220168,1679,1679,1679
220169,1674,1674,1674
220170,1675,1675,1675
220171,1670,1670,1670
220172,1666,1666,1666
220175,1683,1683,1683
220176,1692,1692,1692
220177,1696,1696,1696
220178,1697,1697,1697
220179,1695,1695,1695
220180,1673,1673,1673
220181,1675,1675,1675
220182,1680,1680,1680
220183,1685,1685,1685
220184,1689,1689,1689
220186,1709,1709,1709
220187,1707,1707,1707
220188,1712,1712,1712
220189,1704,1704,1704
220190,1705,1705,1705
220191,1703,1703,1703
220192,1702,1702,1702
220193,1708,1708,1708
220194,1707,1707,1707
220195,1710,1710,1710
220205,1689,1689,1689
220206,1689,1689,1689
220207,1691,1691,1691
220208,1695,1695,1695
220209,1695,1695,1695
220210,1690,1690,1690
220211,1686,1686,1686
220212,1689,1689,1689
220213,1695,1695,1695
220214,1694,1694,1694
220216,1695,1695,1695
220217,1693,1693,1693
220218,1699,1699,1699
220219,1696,1696,1696
220220,1696,1696,1696
220221,1699,1699,1699
220222,1699,1699,1699
220223,1694,1694,1694
220224,1695,1695,1695
220225,1698,1698,1698
220227,1711,1711,1711
220228,1712,1712,1712
220229,1712,1712,1712
220230,1720,1720,1720
220231,1717,1717,1717
220232,1715,1715,1715
220233,1715,1715,1715
220234,1702,1702,1702
220235,1712,1712,1712
220236,1710,1710,1710
220239,1710,1710,1710
220240,1711,1711,1711
220241,1712,1712,1712
220242,1715,1715,1715
220243,1721,1721,1721
220244,1728,1728,1728
220245,1729,1729,1729
220246,1733,1733,1733
220247,1695,1695,1695
220248,1707,1707,1707
220251,1735,1735,1735
220252,1735,1735,1735
220253,1739,1739,1739
220254,1729,1729,1729
220255,1738,1738,1738
220256,1730,1730,1730
220257,1726,1726,1726
220258,1727,1727,1727
220259,1723,1723,1723
220260,1717,1717,1717
220263,1712,1712,1712
220264,1714,1714,1714
220265,1713,1713,1713
220266,1711,1711,1711
220267,1712,1712,1712
220268,1707,1707,1707
220269,1708,1708,1708
220270,1712,1712,1712
220271,1712,1712,1712
220272,1712,1712,1712
220274,1723,1723,1723
220275,1723,1723,1723
220276,1719,1719,1719
