pc_time_ms,emg_timestamp,raw_adc,clean_emg,envelope
47003,734,1751,525.3,26.27
47004,739,1747,876.58,68.78
47004,742,1744,1108.16,120.75
47004,744,1754,1262.44,177.83
47004,746,1769,1367.05,237.3
47004,748,1776,1437.62,297.31
47005,750,1781,1486.86,356.79
47005,752,1768,1518.48,414.87
47006,755,1735,1533.99,470.83
47006,757,1712,1542.77,524.43
47006,759,1689,1547.32,575.57
47006,761,1667,1548.71,624.23
47007,763,1673,1554.86,670.76
47007,765,1722,1574.82,715.96
47007,767,1785,1605.4,760.43
47008,769,1829,1634.18,804.12
47008,771,1855,1653.13,846.57
47008,773,1855,1654.89,886.99
47009,775,1836,1637.3,924.5
47009,777,1806,1602.3,958.39
47010,779,1775,1555.18,988.23
47010,782,1746,1501.42,1013.89
47010,786,1733,1449.72,1035.68
47011,788,1727,1403.88,1054.09
47011,790,1718,1363.79,1069.58
47011,792,1735,1338.17,1083.01
47011,794,1705,1310.79,1094.4
47012,796,1718,1297.32,1104.54
47012,798,1731,1294.84,1114.06
47012,800,1745,1300.91,1123.4
47013,802,1741,1307.37,1132.6
47013,804,1743,1315.17,1141.73
47013,806,1745,1322.48,1150.77
47014,809,1750,1328.46,1159.65
47014,811,1766,1334.64,1168.4
47014,813,1787,1340.11,1176.99
47015,815,1796,1339.31,1185.1
47015,817,1790,1327.91,1192.24
47015,819,1769,1303.56,1197.81
47016,821,1742,1268.09,1201.32
47016,823,1707,1222.85,1202.4
47016,825,1667,1170.38,1200.8
47047,828,1646,1120.17,1196.77
47059,844,1727,1103.96,1192.13
47059,846,1725,1087.72,1186.91
47059,848,1727,1074.58,1181.29
47060,850,1712,1060.23,1175.24
47065,852,1695,1046.02,1168.78
47067,855,1695,1038.19,1162.25
47071,857,1689,1033.5,1155.81
47073,859,1691,1033.38,1149.69
47077,861,1709,1040.61,1144.23
47082,863,1727,1051.74,1139.61
47086,865,1726,1058.31,1135.54
47088,867,1720,1058.59,1131.7
47088,869,1717,1053.81,1127.8
47089,871,1713,1043.72,1123.6
47090,873,1711,1029.34,1118.89
47091,875,1725,1015.96,1113.74
47091,877,1730,1000.09,1108.06
47091,879,1728,980.49,1101.68
47091,881,1720,957.14,1094.45
47096,883,1706,930.48,1086.25
47100,887,1685,900.87,1076.98
47103,890,1679,875.38,1066.9
47104,900,1683,857.3,1056.42
47106,902,1681,843.94,1045.8
47114,904,1696,840.06,1035.51
47115,906,1703,841.01,1025.79
47116,908,1716,847.39,1016.87
47116,910,1751,863.93,1009.22
47117,912,1775,883.47,1002.93
47117,914,1774,896.58,997.61
47117,916,1771,903.56,992.91
47118,918,1762,903.35,988.43
47118,921,1744,894.33,983.73
47118,923,1731,879.76,978.53
47118,925,1712,858.77,972.54
47119,927,1679,828.68,965.35
47119,931,1666,798.22,956.99
47119,933,1681,776.06,947.95
47119,935,1712,764.7,938.78
47119,937,1731,757.66,929.73
47144,939,1732,748.94,920.69
47144,944,1693,728.08,911.06
47146,949,1745,727.43,901.88
47148,952,1778,735.78,893.57
47148,954,1787,743.83,886.08
47149,956,1776,746.3,879.1
47149,958,1753,741.82,872.23
47149,960,1734,734.01,865.32
47150,962,1714,723.57,858.23
47150,964,1703,713.66,851.0
47150,966,1708,708.27,843.87
47151,968,1714,705.36,836.94
47151,970,1730,706.09,830.4
47151,972,1750,709.45,824.35
47151,974,1749,707.31,818.5
47152,976,1744,699.5,812.55
47152,978,1743,688.62,806.35
47152,981,1750,677.96,799.93
47152,983,1748,664.97,793.19
47153,985,1755,653.61,786.21
47153,987,1773,647.41,779.27
47198,989,1759,635.99,772.1
47199,993,1714,612.75,764.14
47199,998,1678,585.28,755.19
47199,1000,1678,566.76,745.77
47199,1003,1698,561.02,736.53
47200,1005,1717,564.0,727.91
47200,1007,1742,574.67,720.25
47200,1009,1745,583.61,713.41
47200,1011,1741,588.68,707.18
47200,1013,1742,591.92,701.41
47201,1015,1737,591.29,695.91
47201,1017,1727,585.71,690.4
47201,1019,1731,580.22,684.89
47201,1021,1739,575.36,679.41
47201,1023,1732,565.93,673.74
47202,1025,1721,551.99,667.65
47202,1027,1725,539.53,661.25
47202,1029,1741,531.95,654.78
47202,1033,1755,527.5,648.42
47202,1035,1769,525.78,642.28
47203,1037,1760,519.69,636.15
47247,1039,1738,507.51,629.72
47248,1044,1682,481.81,622.33
47248,1053,1736,480.75,615.25
47248,1055,1777,492.93,609.13
47248,1057,1793,506.73,604.01
47249,1059,1793,516.71,599.65
47249,1061,1793,523.85,595.86
47249,1063,1791,528.05,592.47
47249,1065,1777,526.15,589.15
47250,1068,1774,522.84,585.84
47250,1070,1772,518.29,582.46
47250,1072,1749,506.02,578.64
47250,1074,1743,493.16,574.36
47250,1076,1743,481.36,569.71
47251,1078,1743,470.07,564.73
47251,1080,1725,453.68,559.18
47251,1082,1712,435.48,552.99
47251,1084,1696,415.47,546.12
47251,1086,1694,398.91,538.76
47251,1088,1713,391.5,531.39
47252,1090,1759,398.89,524.77
47307,1092,1790,412.2,519.14
47307,1097,1823,430.45,514.7
47307,1102,1791,432.79,510.61
47307,1104,1784,432.15,506.69
47308,1106,1768,427.03,502.7
47308,1108,1747,417.49,498.44
47308,1110,1737,408.27,493.93
47308,1112,1728,399.42,489.21
47308,1114,1712,388.42,484.17
47309,1116,1702,377.38,478.83
47309,1118,1706,370.04,473.39
47309,1120,1708,364.09,467.92
47309,1122,1716,360.4,462.55
47309,1124,1735,361.11,457.48
47309,1127,1743,361.17,452.66
47310,1129,1745,358.83,447.97
47310,1131,1755,357.32,443.44
47310,1133,1775,359.59,439.25
47310,1136,1793,364.18,435.49
47311,1138,1808,369.9,432.21
47311,1140,1808,372.42,429.22
47363,1142,1793,368.88,426.21
47363,1147,1746,352.22,422.51
47364,1162,1754,343.79,418.57
47364,1164,1775,345.23,414.9
47364,1166,1795,353.18,411.82
47365,1169,1808,363.3,409.39
47365,1171,1809,370.97,407.47
47365,1173,1809,376.23,405.91
47366,1175,1801,376.91,404.46
47366,1177,1780,370.05,402.74
47366,1179,1778,363.26,400.76
47366,1181,1784,358.46,398.65
47367,1183,1784,352.82,396.36
47367,1185,1781,345.43,393.81
47367,1187,1776,336.14,390.93
47367,1189,1750,319.34,387.35
47367,1191,1736,301.3,383.05
47367,1193,1738,287.63,378.27
47368,1195,1745,278.89,373.31
47368,1198,1735,268.85,368.08
47417,1200,1764,270.12,363.18
47417,1204,1776,274.31,358.74
47417,1206,1764,273.59,354.48
47417,1217,1841,296.46,351.58
47418,1220,1840,311.91,349.6
47418,1222,1834,320.76,348.16
47418,1224,1808,319.03,346.7
47418,1226,1777,308.52,344.79
47418,1228,1760,296.14,342.36
47419,1230,1743,282.31,339.36
47419,1232,1730,268.43,335.81
47419,1234,1747,263.24,332.18
47419,1238,1801,274.65,329.31
47420,1240,1819,286.07,327.14
47420,1242,1838,297.42,325.66
47420,1244,1847,305.49,324.65
47420,1246,1841,306.8,323.76
47420,1248,1833,303.07,322.72
47421,1250,1825,296.26,321.4
47421,1252,1791,280.02,319.33
47421,1254,1776,263.64,316.55
47479,1256,1758,246.83,313.06
47479,1261,1731,227.49,308.78
47479,1271,1791,232.92,304.99
47480,1273,1777,233.01,301.39
47480,1275,1769,231.23,297.88
47480,1277,1783,234.62,294.72
47480,1280,1782,236.73,291.82
47481,1282,1788,239.69,289.21
47481,1284,1795,243.12,286.91
47481,1286,1803,246.76,284.9
47481,1288,1796,245.67,282.94
47481,1290,1777,237.5,280.67
47482,1292,1772,228.62,278.06
47482,1294,1752,214.75,274.9
47482,1296,1740,200.04,271.16
47482,1298,1743,189.49,267.07
47482,1300,1742,180.8,262.76
47482,1302,1728,169.78,258.11
47483,1304,1750,168.3,253.62
47483,1307,1786,177.74,249.83
47483,1309,1802,188.74,246.77
47529,1311,1791,192.81,244.07
47530,1315,1759,186.0,241.17
47530,1335,1775,186.38,238.43
47530,1337,1777,187.48,235.88
47530,1340,1807,197.41,233.96
47531,1342,1810,205.04,232.51
47531,1344,1804,208.19,231.3
47531,1346,1807,210.8,230.27
47531,1348,1794,208.02,229.16
47531,1351,1793,205.01,227.95
47531,1353,1806,205.91,226.85
47532,1355,1828,212.01,226.11
47532,1357,1831,215.8,225.59
47532,1359,1825,215.27,225.08
47532,1361,1818,211.56,224.4
47532,1363,1804,203.73,223.37
47533,1365,1790,193.31,221.86
47533,1367,1780,182.58,219.9
47533,1369,1767,171.0,217.46
47533,1371,1749,157.55,214.46
47533,1373,1753,149.63,211.22
47599,1375,1763,147.33,208.02
47600,1380,1769,147.61,205.0
47600,1386,1795,155.53,202.53
47600,1388,1811,165.45,200.68
47600,1390,1809,171.08,199.2
47601,1393,1787,167.62,197.62
47601,1395,1773,160.31,195.75
47601,1397,1745,146.17,193.27
47601,1399,1719,128.02,190.01
47601,1401,1730,118.35,186.43
47602,1403,1760,120.15,183.11
47602,1405,1777,125.77,180.25
47602,1407,1790,132.74,177.87
47602,1409,1807,141.79,176.07
47602,1411,1818,150.46,174.79
47603,1413,1845,163.73,174.23
47603,1416,1872,180.19,174.53
47603,1418,1883,194.08,175.51
47603,1420,1868,198.56,176.66
47603,1422,1846,194.75,177.56
47604,1424,1828,186.76,178.02
47654,1426,1808,175.57,177.9
47654,1430,1787,162.05,177.11
47654,1454,1814,161.43,176.33
47655,1456,1800,157.13,175.37
47655,1458,1799,154.03,174.3
47655,1460,1792,149.68,173.07
47655,1462,1794,146.89,171.76
47656,1465,1800,146.04,170.47
47656,1467,1799,144.1,169.15
47656,1469,1792,139.39,167.67
47656,1471,1779,130.87,165.83
47656,1473,1771,121.26,163.6
47657,1475,1779,115.78,161.21
47657,1477,1826,124.96,159.4
47657,1479,1872,143.89,158.62
47657,1481,1873,156.03,158.49
47657,1483,1847,155.7,158.35
47657,1485,1812,144.6,157.66
47658,1487,1786,129.35,156.25
47658,1489,1782,118.33,154.35
47716,1491,1811,120.37,152.65
47717,1496,1867,139.42,151.99
47717,1498,1875,155.43,152.16
47717,1509,1806,146.01,151.86
47717,1511,1790,135.11,151.02
47718,1513,1777,123.92,149.66
47718,1515,1751,108.39,147.6
47718,1517,1743,95.06,144.97
47718,1519,1768,92.83,142.37
47718,1521,1803,100.77,140.29
47719,1523,1829,112.55,138.9
47719,1525,1852,125.76,138.24
47719,1527,1866,137.08,138.18
47719,1529,1863,142.06,138.38
47719,1531,1859,142.67,138.59
47719,1534,1856,141.02,138.71
47720,1536,1834,132.62,138.41
47720,1538,1794,114.81,137.23
47720,1540,1773,96.9,135.21
47720,1542,1744,77.03,132.3
47720,1545,1724,58.88,128.63
47766,1547,1747,54.97,124.95
47767,1552,1838,80.96,122.75
47767,1571,1853,103.93,121.81
47767,1573,1864,123.04,121.87
47767,1575,1850,131.47,122.35
47768,1577,1814,125.59,122.51
47768,1579,1778,109.69,121.87
47768,1581,1769,94.96,120.53
47768,1583,1766,82.74,118.64
47768,1585,1774,75.48,116.48
47768,1588,1773,68.93,114.1
47768,1590,1775,63.86,111.59
47769,1592,1764,56.09,108.81
47769,1594,1770,51.86,105.97
47769,1596,1807,59.64,103.65
47769,1598,1843,75.51,102.24
47769,1600,1867,93.43,101.8
47769,1602,1870,106.63,102.04
47769,1604,1850,109.89,102.44
47770,1606,1816,102.45,102.44
47770,1608,1776,86.18,101.62
47832,1610,1748,67.71,99.93
47832,1615,1751,57.11,97.79
47833,1617,1791,62.81,96.04
47833,1621,1842,82.48,95.36
47833,1623,1846,96.96,95.44
47834,1625,1845,105.89,95.96
47834,1627,1814,101.64,96.25
47834,1629,1794,91.51,96.01
47834,1631,1780,79.09,95.16
47835,1633,1758,62.72,93.54
47835,1635,1756,49.81,91.36
47835,1637,1764,42.42,88.91
47835,1639,1783,42.28,86.58
47835,1641,1806,48.46,84.67
47836,1644,1833,60.32,83.45
47836,1646,1851,73.53,82.96
47836,1649,1839,78.84,82.75
47836,1651,1830,79.96,82.61
47836,1653,1810,75.2,82.24
47837,1655,1798,69.09,81.58
47837,1657,1803,67.32,80.87
47837,1659,1817,71.2,80.39
47891,1661,1823,76.38,80.19
47891,1666,1841,85.78,80.47
47891,1686,1851,95.31,81.21
47892,1688,1847,100.36,82.17
47892,1690,1820,95.14,82.81
47892,1692,1806,86.64,83.01
47892,1694,1804,79.37,82.82
47892,1696,1807,74.33,82.4
47893,1698,1799,67.45,81.65
47893,1700,1807,64.15,80.78
47893,1702,1826,66.66,80.07
47893,1705,1847,73.8,79.76
47893,1707,1882,88.42,80.19
47893,1709,1880,97.14,81.04
47894,1711,1864,97.88,81.88
47894,1713,1852,94.73,82.52
47894,1715,1845,90.75,82.93
47894,1717,1837,86.19,83.1
47895,1719,1839,84.44,83.16
47896,1721,1839,84.05,83.21
47896,1723,1815,77.35,82.92
47945,1725,1806,70.76,82.31
47945,1730,1820,70.95,81.74
47945,1746,1831,74.51,81.38
47946,1749,1829,76.08,81.11
47946,1751,1834,78.04,80.96
47946,1753,1822,74.82,80.65
47947,1755,1838,76.28,80.43
47947,1757,1838,75.95,80.21
47947,1759,1840,74.96,79.95
47947,1761,1861,79.31,79.92
47948,1764,1881,87.12,80.28
47948,1766,1873,89.07,80.72
47948,1768,1856,84.68,80.91
47948,1770,1828,73.1,80.52
47948,1772,1782,51.71,79.08
47949,1774,1778,36.72,76.96
47949,1776,1787,30.3,74.63
47949,1778,1812,34.6,72.63
47949,1780,1818,40.35,71.02
47949,1782,1856,56.45,70.29
47949,1784,1895,79.48,70.75
47950,1786,1919,102.22,72.32
48004,1788,1934,121.61,74.79
48004,1793,1901,123.94,77.24
48005,1805,1808,96.53,78.21
48005,1807,1827,82.7,78.43
48005,1809,1847,78.46,78.43
48005,1811,1873,82.57,78.64
48006,1813,1888,89.07,79.16
48006,1815,1889,93.04,79.85
48006,1817,1883,93.34,80.53
48006,1819,1873,90.13,81.01
48006,1821,1855,82.4,81.08
48007,1824,1842,73.35,80.69
48007,1826,1823,61.84,79.75
48007,1828,1791,44.94,78.01
48007,1830,1778,30.21,75.62
48007,1832,1797,26.58,73.17
48008,1834,1837,36.62,71.34
48008,1836,1871,53.79,70.46
48008,1838,1916,78.69,70.87
48008,1840,1931,99.4,72.3
48008,1842,1909,105.85,73.98
48062,1844,1880,100.4,75.3
48062,1849,1834,81.86,75.63
48063,1858,1823,65.19,75.1
48063,1860,1850,61.45,74.42
48063,1862,1853,59.45,73.67
48063,1864,1859,59.71,72.97
48064,1866,1869,62.83,72.47
48064,1868,1854,60.51,71.87
48064,1870,1835,53.42,70.95
48064,1872,1839,50.12,69.91
48064,1874,1848,50.94,68.96
48065,1876,1858,54.81,68.25
48065,1878,1874,62.43,67.96
48065,1880,1890,72.43,68.18
48065,1883,1882,76.64,68.61
48065,1885,1861,72.87,68.82
48065,1887,1837,62.72,68.51
48066,1889,1813,48.24,67.5
48066,1891,1791,31.46,65.7
48066,1893,1774,14.67,63.15
48066,1895,1760,-1.17,60.05
48120,1897,1754,-13.93,57.74
48120,1902,1869,11.7,55.44
48120,1904,1907,40.0,54.67
48121,1917,1833,36.27,53.75
48121,1919,1842,35.82,52.85
48121,1921,1863,41.34,52.28
48121,1924,1875,48.34,52.08
48121,1926,1886,56.2,52.29
48122,1928,1899,65.4,52.94
48122,1930,1899,71.76,53.88
48122,1932,1874,68.84,54.63
48122,1934,1857,62.22,55.01
48122,1936,1859,58.93,55.21
48123,1938,1863,58.55,55.37
48123,1940,1870,60.98,55.65
48123,1942,1903,72.94,56.52
48123,1944,1895,78.78,57.63
48123,1946,1891,81.39,58.82
48124,1949,1885,80.98,59.93
48124,1951,1868,75.01,60.68
48124,1953,1845,63.37,60.82
48124,1956,1844,54.43,60.5
48179,1958,1843,47.31,59.84
48179,1963,1870,49.83,59.34
48180,1975,1872,51.39,58.94
48181,1978,1882,54.73,58.73
48181,1980,1876,54.59,58.52
48181,1982,1877,54.34,58.31
48182,1984,1879,54.52,58.12
48182,1986,1902,61.49,58.29
48182,1988,1923,72.62,59.01
48182,1990,1944,86.66,60.39
48182,1992,1959,100.91,62.42
48183,1994,1957,110.23,64.81
48183,1996,1953,115.62,67.35
48183,1998,1949,118.36,69.9
48183,2000,1926,113.58,72.08
48183,2002,1909,105.49,73.75
48184,2005,1919,103.19,75.23
48184,2007,1927,104.08,76.67
48184,2009,1928,104.81,78.08
48184,2011,1930,105.49,79.45
48184,2013,1925,103.83,80.66
48238,2015,1918,99.79,81.62
48239,2019,1931,100.04,82.54
48239,2034,1920,95.92,83.21
48239,2036,1914,90.34,83.57
48240,2038,1911,84.77,83.63
48240,2041,1916,81.74,83.53
48240,2043,1923,81.2,83.42
48240,2045,1941,85.82,83.54
48240,2047,1966,96.19,84.17
48241,2049,1966,103.06,85.11
48241,2051,1948,102.3,85.97
48241,2053,1936,98.34,86.59
48241,2055,1919,90.87,86.81
48241,2058,1905,82.04,86.57
48241,2060,1917,80.14,86.25
48242,2062,1907,76.27,85.75
48242,2064,1888,68.21,84.87
48242,2066,1872,58.06,83.53
48242,2068,1866,49.29,81.82
48242,2070,1874,45.45,80.0
48242,2073,1909,52.78,78.64
48243,2075,1948,68.59,78.14
48306,2077,1969,84.44,78.45
48306,2081,1969,93.84,79.22
48306,2094,1900,78.15,79.17
48307,2096,1917,71.55,78.79
48307,2098,1928,69.64,78.33
48307,2100,1946,73.31,78.08
48307,2102,1957,78.97,78.12
48307,2104,1952,81.43,78.29
48308,2106,1938,79.29,78.34
48308,2109,1908,69.46,77.89
48308,2111,1866,51.04,76.55
48308,2113,1848,34.15,74.43
48308,2115,1866,29.12,72.17
48308,2117,1887,32.81,70.2
48309,2119,1906,41.45,68.76
48309,2121,1921,51.77,67.91
48309,2123,1924,59.16,67.47
48309,2125,1900,56.03,66.9
48309,2127,1886,48.55,65.98
48310,2129,1871,37.69,64.57
48310,2131,1856,24.57,62.57
48362,2133,1843,10.64,59.97
48364,2138,1889,14.08,57.68
48365,2160,1901,19.28,55.76
48365,2162,1901,22.26,54.08
48365,2164,1902,24.31,52.59
48365,2166,1901,25.45,51.24
48366,2168,1893,24.17,49.88
48366,2170,1889,22.74,48.53
48366,2172,1888,22.33,47.22
48367,2174,1902,27.22,46.22
48367,2177,1920,36.89,45.75
48367,2179,1936,49.04,45.91
48367,2181,1933,56.93,46.47
48367,2183,1923,59.56,47.12
48368,2185,1920,60.45,47.79
48368,2187,1901,55.12,48.15
48368,2189,1872,42.36,47.86
48368,2191,1857,28.65,46.9
48369,2193,1856,18.4,45.48
48369,2195,1863,12.81,43.84
48369,2197,1872,10.93,42.2
48424,2199,1890,14.23,40.8
48425,2204,1886,14.43,39.48
48425,2218,1886,13.84,38.2
48425,2220,1904,18.29,37.2
48426,2222,1916,24.54,36.57
48426,2224,1927,31.93,36.34
48426,2226,1936,39.71,36.51
48426,2228,1942,47.06,37.04
48426,2230,1936,50.7,37.72
48427,2232,1920,49.01,38.28
48427,2235,1917,47.73,38.76
48427,2237,1902,43.18,38.98
48427,2239,1890,37.29,38.89
48427,2241,1897,36.09,38.75
48428,2243,1898,36.03,38.62
48428,2245,1906,38.55,38.61
48428,2247,1923,45.17,38.94
48428,2249,1922,48.81,39.43
48428,2251,1911,47.13,39.82
48429,2253,1902,42.25,39.94
48429,2255,1893,35.15,39.7
48429,2257,1895,29.88,39.21
48486,2260,1904,28.05,38.65
48486,2265,1923,31.71,38.3
48487,2280,1893,24.59,37.62
48487,2282,1898,20.96,36.79
48487,2284,1890,16.1,35.75
48487,2286,1883,11.01,34.51
48488,2288,1900,13.23,33.45
48488,2290,1918,20.83,32.82
48488,2292,1934,31.52,32.75
48488,2295,1952,44.83,33.36
48488,2297,1953,54.67,34.42
48489,2299,1923,52.69,35.34
48489,2301,1907,46.8,35.91
48489,2303,1908,43.22,36.28
48489,2305,1931,47.67,36.85
48489,2307,1951,56.42,37.82
48489,2309,1977,69.62,39.41
48490,2311,1990,81.71,41.53
48490,2313,1992,89.58,43.93
48490,2315,1992,93.95,46.43
48490,2317,1977,91.51,48.69
48548,2319,1955,82.53,50.38
48549,2324,1937,70.62,51.39
48549,2341,1914,55.52,51.6
48549,2343,1933,51.17,51.58
48549,2345,1961,56.99,51.85
48549,2347,1969,63.74,52.44
48550,2349,1973,69.89,53.31
48550,2351,1981,76.76,54.49
48550,2353,1966,77.12,55.62
48550,2355,1943,70.55,56.36
48551,2358,1919,58.91,56.49
48551,2360,1891,42.58,55.8
48551,2362,1876,26.91,54.35
48551,2365,1896,22.1,52.74
48551,2367,1920,25.67,51.39
48552,2369,1939,33.2,50.48
48552,2371,1943,38.71,49.89
48552,2373,1936,39.41,49.36
48552,2375,1912,31.78,48.48
48552,2377,1890,19.23,47.02
48553,2379,1889,9.9,45.17
48553,2381,1896,5.41,43.18
48623,2384,1906,5.32,41.28
48623,2388,1971,24.89,40.46
48623,2403,1941,29.33,39.91
48624,2405,1936,31.12,39.47
48624,2407,1942,34.53,39.22
48624,2409,1943,37.63,39.14
48624,2411,1943,40.22,39.2
48624,2413,1950,44.54,39.46
48625,2415,1946,46.64,39.82
48625,2417,1935,45.01,40.08
48625,2419,1923,40.43,40.1
48625,2421,1919,36.11,39.9
48625,2423,1922,33.93,39.6
48625,2425,1938,36.92,39.47
48626,2428,1961,45.34,39.76
48626,2430,1968,52.46,40.4
48626,2432,1964,55.27,41.14
48626,2434,1956,53.96,41.78
48626,2436,1949,50.26,42.2
48626,2438,1937,43.59,42.27
48627,2440,1932,37.25,42.02
48673,2442,1925,30.77,41.46
48673,2447,1926,26.81,40.73
48673,2478,1884,11.83,39.28
48674,2480,1884,2.19,37.43
48674,2482,1897,0.16,35.56
48674,2484,1898,-0.34,33.8
48674,2486,1895,-1.12,32.17
48674,2488,1901,0.44,30.58
48675,2490,1919,6.99,29.4
48675,2493,1923,12.46,28.56
48675,2495,1928,17.29,27.99
48675,2497,1936,22.39,27.71
48675,2499,1918,19.77,27.32
48676,2501,1908,14.31,26.66
48676,2503,1908,10.02,25.83
48676,2505,1911,7.55,24.92
48676,2507,1899,1.97,23.77
48676,2509,1866,-11.83,23.17
48677,2511,1843,-27.94,23.41
48677,2513,1823,-44.48,24.47
48677,2515,1835,-51.5,25.82
48677,2518,1872,-44.52,26.75
48735,2520,1909,-28.15,26.82
48735,2524,1956,-2.64,25.61
48736,2528,1956,14.69,25.07
48736,2530,1935,19.95,24.81
48736,2532,1904,13.97,24.27
48736,2534,1884,3.72,23.24
48736,2537,1876,-5.72,22.37
48737,2539,1881,-10.62,21.78
48737,2541,1893,-10.29,21.2
48737,2543,1878,-14.53,20.87
48737,2545,1877,-17.65,20.71
48737,2547,1885,-17.3,20.54
48737,2549,1888,-16.12,20.32
48738,2551,1909,-9.01,19.75
48738,2553,1911,-3.65,18.95
48738,2555,1904,-2.22,18.11
48738,2557,1896,-3.75,17.39
48738,2559,1899,-3.94,16.72
48738,2561,1890,-6.78,16.22
48738,2564,1881,-11.36,15.98
48739,2566,1871,-17.35,16.05
48797,2569,1844,-29.32,16.71
48799,2574,1857,-33.27,17.54
48799,2591,1903,-21.88,17.76
48799,2593,1934,-4.73,17.11
48800,2595,1939,8.33,16.67
48800,2597,1928,13.7,16.52
48800,2599,1921,15.01,16.44
48800,2601,1922,16.02,16.42
48801,2603,1905,11.46,16.17
48801,2605,1896,5.64,15.65
48801,2607,1882,-2.42,14.99
48801,2609,1881,-7.99,14.64
48801,2611,1870,-14.81,14.64
48802,2613,1870,-19.13,14.87
48802,2616,1893,-14.89,14.87
48802,2618,1907,-7.64,14.51
48802,2620,1903,-3.89,13.98
48802,2622,1902,-1.73,13.37
48803,2624,1888,-4.63,12.93
48803,2626,1874,-10.98,12.83
48803,2628,1872,-16.06,12.99
48859,2630,1871,-19.93,13.34
48859,2634,1878,-20.57,13.7
48860,2653,1896,-15.71,13.8
48860,2655,1900,-11.33,13.68
48860,2657,1910,-5.47,13.27
48860,2659,1918,0.8,12.64
48860,2661,1901,-0.11,12.02
48861,2663,1882,-6.39,11.74
48861,2665,1843,-22.17,12.26
48861,2667,1835,-34.9,13.39
48861,2670,1849,-38.85,14.66
48861,2672,1873,-33.84,15.62
48861,2674,1881,-27.68,16.22
48862,2676,1891,-20.29,16.43
48862,2679,1892,-14.94,16.35
48862,2681,1891,-11.7,16.12
48862,2683,1889,-10.31,15.83
48862,2685,1900,-6.32,15.35
48862,2687,1903,-3.0,14.74
48862,2689,1906,-0.16,14.01
48863,2691,1926,7.51,13.68
48863,2693,1937,15.78,13.79
48930,2695,1936,20.92,14.14
48930,2700,1904,14.73,14.17
48931,2715,1860,-2.53,13.59
48931,2717,1863,-12.95,13.56
48932,2719,1868,-17.96,13.78
48932,2721,1866,-21.37,14.16
48932,2723,1872,-21.31,14.52
48933,2725,1865,-22.93,14.94
48933,2727,1856,-26.43,15.51
48933,2729,1836,-34.65,16.47
48933,2731,1821,-44.7,17.88
48934,2733,1815,-53.43,19.66
48934,2736,1813,-60.16,21.68
48934,2738,1812,-65.36,23.87
48934,2740,1807,-70.81,26.21
48934,2742,1799,-77.36,28.77
48934,2744,1819,-76.23,31.14
48935,2746,1844,-68.36,33.01
48935,2748,1866,-56.79,34.19
48935,2750,1854,-52.84,35.13
48935,2752,1833,-56.56,36.2
48985,2754,1827,-60.72,37.42
48985,2759,1836,-60.37,38.57
48985,2785,1921,-33.96,38.34
48985,2787,1918,-16.3,37.24
48986,2789,1906,-7.25,35.74
48986,2791,1899,-2.51,34.08
48986,2794,1884,-3.05,32.53
48986,2796,1874,-5.67,31.18
48986,2798,1856,-12.14,30.23
48987,2800,1849,-17.99,29.62
48987,2802,1858,-18.8,29.08
48987,2804,1874,-14.31,28.34
48987,2806,1885,-8.04,27.33
48987,2808,1903,1.24,26.02
48987,2810,1876,-1.21,24.78
48988,2812,1871,-5.15,23.8
48988,2814,1878,-6.5,22.93
48988,2816,1891,-4.28,22.0
48988,2818,1899,-1.05,20.95
48988,2820,1895,-0.59,19.94
48988,2823,1892,-1.51,19.01
49049,2825,1871,-8.5,18.49
49050,2829,1815,-29.78,19.05
49050,2840,1870,-27.09,19.45
49050,2842,1889,-18.78,19.42
49051,2844,1903,-8.16,18.86
49051,2846,1895,-2.64,18.05
49051,2848,1875,-4.26,17.36
49051,2851,1856,-10.51,17.02
49052,2853,1832,-21.49,17.24
49052,2855,1834,-27.98,17.78
49052,2857,1823,-35.52,18.66
49052,2859,1830,-38.56,19.66
49052,2861,1851,-34.59,20.4
49053,2863,1893,-19.8,20.37
49053,2865,1934,1.74,19.44
49053,2867,1949,19.85,19.46
49053,2869,1931,25.65,19.77
49053,2871,1892,16.95,19.63
49053,2873,1851,-1.81,18.74
49054,2876,1850,-14.91,18.55
49054,2879,1878,-15.06,18.37
49110,2881,1907,-5.82,17.75
49110,2885,1939,10.81,17.4
49110,2904,1851,-3.53,16.71
49111,2906,1891,-0.27,15.88
49111,2908,1924,12.78,15.73
49111,2910,1958,32.57,16.57
49111,2912,1985,54.51,18.47
49111,2914,1999,73.66,21.23
49112,2916,1984,81.88,24.26
49112,2918,1948,76.18,26.86
49112,2920,1911,60.69,28.55
49112,2922,1886,42.2,29.23
49112,2924,1893,31.35,29.34
49112,2927,1909,28.41,29.29
49113,2929,1930,32.3,29.44
49113,2931,1938,36.87,29.81
49113,2933,1938,39.47,30.3
49113,2935,1933,39.26,30.74
49113,2937,1920,34.85,30.95
49114,2939,1911,28.92,30.85
49114,2941,1904,22.75,30.44
49114,2943,1891,14.77,29.66
49232,2945,1864,1.5,28.25
49232,2950,1843,-13.4,27.51
49233,2965,1912,-2.31,26.25
49233,2967,1903,2.86,25.08
49233,2969,1905,7.15,24.18
49233,2972,1908,11.0,23.52
49234,2974,1903,12.0,22.95
49234,2976,1898,10.96,22.35
49234,2979,1888,6.97,21.58
49234,2981,1882,2.14,20.61
49234,2983,1872,-4.45,19.8
49235,2985,1881,-6.49,19.13
49235,2987,1925,5.08,18.43
49235,2989,1968,25.52,18.79
49235,2992,1990,45.61,20.13
49235,2994,1997,60.92,22.17
49235,2996,1988,68.26,24.47
49236,2998,1961,64.97,26.5
49236,3000,1935,55.03,27.92
49236,3002,1914,42.38,28.64
49236,3004,1903,31.14,28.77
49236,3006,1896,22.19,28.44
49236,3011,1903,19.02,27.97
49237,3039,1892,14.24,27.28
49237,3041,1883,8.79,26.36
49237,3043,1893,8.33,25.46
49237,3045,1905,11.54,24.76
49238,3047,1924,18.99,24.47
49238,3049,1943,28.99,24.7
49238,3051,1953,37.74,25.35
49238,3053,1945,40.08,26.09
49239,3055,1938,38.39,26.7
49239,3058,1939,36.5,27.19
49239,3060,1929,31.43,27.4
49239,3062,1924,26.04,27.34
49239,3064,1936,25.88,27.26
49240,3066,1936,26.0,27.2
49240,3068,1922,22.38,26.96
49240,3070,1915,18.59,26.54
49240,3072,1925,19.94,26.21
49241,3074,1933,24.22,26.11
49241,3076,1938,29.48,26.28
49241,3078,1948,36.73,26.8
49241,3081,1937,38.76,27.4
49297,3085,1906,30.97,27.58
49298,3092,1906,25.61,27.48
49298,3094,1904,21.05,27.16
49299,3096,1881,10.51,26.33
49299,3098,1863,-2.74,25.15
49299,3100,1859,-13.71,24.57
49299,3102,1852,-24.06,24.55
49300,3104,1851,-32.17,24.93
49300,3106,1853,-37.78,25.57
49300,3108,1884,-32.88,25.94
49300,3110,1931,-15.96,25.44
49300,3112,1970,6.8,24.51
49301,3114,1990,27.89,24.68
49301,3116,1988,41.43,25.51
49301,3118,1980,48.31,26.65
49301,3121,1961,47.69,27.71
49301,3123,1930,38.73,28.26
49302,3125,1903,25.63,28.13
49302,3127,1889,13.84,27.41
49302,3129,1880,4.5,26.27
49302,3131,1862,-5.98,25.25
49361,3133,1847,-16.59,24.82
49362,3137,1867,-17.14,24.43
49362,3139,1906,-5.68,23.5
49362,3141,1952,15.42,23.09
49362,3143,1974,35.23,23.7
49363,3145,1979,48.57,24.94
49363,3147,1969,52.77,26.34
49363,3150,1946,46.87,27.36
49363,3152,1902,28.06,27.4
49363,3155,1897,12.71,26.66
49364,3157,1882,-2.77,25.47
49364,3159,1876,-15.06,24.95
49364,3161,1883,-20.75,24.74
49364,3163,1894,-20.38,24.52
49364,3165,1895,-18.64,24.23
49365,3167,1901,-14.33,23.73
49365,3169,1890,-13.4,23.21
49365,3171,1867,-18.45,22.98
49365,3173,1853,-25.05,23.08
49366,3175,1858,-27.24,23.29
49366,3178,1869,-25.02,23.37
49423,3180,1880,-20.25,23.22
49424,3186,1903,-10.6,22.59
49424,3217,1878,-12.46,22.08
49424,3219,1881,-13.97,21.68
49424,3221,1889,-13.86,21.28
49425,3223,1897,-12.66,20.85
49425,3225,1887,-16.01,20.61
49425,3227,1871,-23.97,20.78
49425,3229,1861,-32.86,21.38
49425,3232,1858,-39.86,22.31
49426,3234,1848,-47.23,23.55
49426,3236,1842,-53.26,25.04
49426,3238,1854,-52.66,26.42
49426,3240,1875,-44.72,27.33
49427,3242,1902,-29.98,27.47
49427,3244,1918,-14.1,26.8
49427,3246,1904,-6.69,25.79
49427,3248,1896,-3.44,24.68
49427,3250,1902,0.92,23.49
49428,3252,1900,3.38,22.48
49428,3255,1874,-2.92,21.5
49486,3257,1863,-10.85,20.97
49487,3261,1845,-22.11,21.03
49487,3278,1873,-21.9,21.07
49487,3280,1853,-28.43,21.44
49488,3282,1821,-43.13,22.53
49488,3286,1811,-56.63,24.23
49488,3288,1824,-62.26,26.13
49488,3290,1823,-66.61,28.16
49488,3292,1826,-68.73,30.18
49489,3294,1840,-65.88,31.97
49489,3296,1849,-61.04,33.42
49489,3298,1856,-55.34,34.52
49489,3300,1864,-48.65,35.22
49489,3302,1862,-44.22,35.67
49489,3304,1863,-40.35,35.91
49490,3306,1881,-31.74,35.7
49490,3308,1903,-18.73,34.85
49490,3311,1902,-9.75,33.6
49490,3313,1891,-6.6,32.25
49490,3315,1869,-10.77,31.17
49490,3317,1841,-21.74,30.7
49549,3319,1825,-33.72,30.85
49550,3323,1813,-45.22,31.57
49550,3326,1812,-53.15,32.65
49550,3341,1855,-45.57,33.3
49551,3343,1838,-45.7,33.92
49551,3345,1811,-54.21,34.93
49551,3347,1799,-63.94,36.38
49551,3350,1806,-68.77,38.0
49552,3352,1810,-71.16,39.66
49552,3354,1827,-67.95,41.07
49552,3356,1844,-60.91,42.07
49552,3358,1845,-56.01,42.76
49552,3360,1842,-53.65,43.31
49553,3362,1841,-52.25,43.75
49553,3364,1832,-53.71,44.25
49553,3366,1821,-57.52,44.92
49553,3368,1810,-62.74,45.81
49553,3370,1807,-66.38,46.83
49553,3373,1784,-74.88,48.24
49553,3375,1770,-83.96,50.02
49554,3377,1763,-91.39,52.09
49554,3379,1752,-99.02,54.44
49611,3381,1792,-91.67,56.3
49611,3386,1854,-67.9,56.88
49612,3403,1826,-60.43,57.06
49612,3405,1862,-45.08,56.46
49612,3407,1888,-27.59,55.01
49612,3409,1909,-10.29,52.78
49612,3411,1919,3.58,50.32
49613,3413,1902,7.15,48.16
49613,3415,1869,-0.77,45.79
49613,3417,1842,-14.23,44.21
49613,3419,1841,-23.17,43.16
49613,3421,1849,-25.96,42.3
49614,3423,1866,-21.63,41.27
49614,3425,1871,-15.99,40.0
49614,3427,1872,-10.71,38.54
49614,3429,1870,-6.71,36.95
49614,3432,1867,-4.09,35.3
49614,3434,1858,-4.48,33.76
49614,3436,1850,-6.92,32.42
49615,3438,1852,-8.05,31.2
49615,3440,1843,-11.89,30.24
49673,3442,1843,-15.13,29.48
49674,3447,1861,-12.75,28.65
49674,3467,1861,-12.1,27.82
49674,3469,1875,-8.49,26.85
49674,3471,1883,-4.61,25.74
49675,3473,1881,-3.42,24.62
49675,3475,1872,-5.91,23.69
49675,3478,1871,-8.14,22.91
49675,3480,1883,-5.95,22.06
49675,3482,1891,-1.63,21.04
49675,3484,1871,-4.0,20.19
49675,3486,1847,-11.88,19.77
49676,3488,1851,-14.88,19.53
49676,3491,1867,-10.92,19.1
49676,3493,1880,-3.28,18.31
49676,3495,1884,3.92,17.59
49676,3497,1873,6.0,17.01
49676,3499,1864,4.89,16.4
49677,3501,1857,1.9,15.68
49677,3504,1847,-3.53,15.07
49677,3506,1843,-9.05,14.77
49738,3508,1854,-10.29,14.54
49738,3512,1855,-11.77,14.41
49739,3528,1859,-12.53,14.31
49739,3530,1863,-12.77,14.24
49739,3532,1857,-15.5,14.3
49739,3534,1865,-15.5,14.36
49740,3536,1879,-11.56,14.22
49740,3538,1893,-4.68,13.74
49740,3540,1882,-3.05,13.21
49740,3542,1857,-8.91,12.99
49740,3544,1834,-18.95,13.29
49740,3546,1794,-36.7,14.46
49741,3548,1784,-50.49,16.26
49741,3551,1820,-47.77,17.84
49741,3553,1873,-29.0,18.4
49741,3555,1890,-10.59,18.01
49741,3557,1909,7.7,17.49
49741,3559,1921,23.35,17.78
49741,3561,1919,32.63,18.53
49742,3563,1920,38.26,19.51
49742,3565,1897,34.12,20.24
49742,3567,1866,21.02,20.28
49799,3569,1841,3.87,19.46
49800,3574,1823,-13.6,19.17
49800,3593,1854,-16.26,19.02
49800,3595,1839,-22.47,19.19
49801,3598,1839,-26.35,19.55
49801,3600,1840,-28.21,19.99
49801,3602,1847,-26.78,20.33
49801,3604,1849,-24.59,20.54
49801,3606,1858,-19.83,20.5
49802,3608,1865,-14.02,20.18
49802,3610,1841,-16.94,20.02
49802,3612,1840,-18.98,19.97
49802,3614,1839,-20.54,19.99
49802,3616,1841,-21.02,20.05
49802,3618,1864,-14.59,19.77
49803,3620,1869,-9.06,19.24
49803,3622,1858,-9.05,18.73
49803,3624,1851,-11.62,18.37
49803,3627,1839,-17.38,18.32
49803,3629,1829,-24.6,18.64
49803,3631,1824,-31.16,19.26
49861,3633,1834,-32.61,19.93
49862,3637,1835,-33.17,20.59
49862,3654,1906,-12.02,20.16
49862,3656,1902,1.28,19.22
49862,3658,1873,1.75,18.35
49863,3660,1841,-7.29,17.79
49863,3662,1823,-18.41,17.82
49863,3664,1821,-26.02,18.23
49863,3666,1833,-27.0,18.67
49863,3668,1844,-23.87,18.93
49863,3670,1839,-22.9,19.13
49863,3672,1836,-22.96,19.32
49864,3674,1834,-23.57,19.53
49864,3676,1826,-26.52,19.88
49864,3678,1819,-30.86,20.43
49864,3681,1821,-33.54,21.09
49864,3683,1825,-34.53,21.76
49864,3685,1823,-36.21,22.48
49864,3687,1832,-35.03,23.11
49865,3689,1853,-28.26,23.37
49865,3691,1870,-18.85,23.14
49923,3693,1875,-11.18,22.54
49923,3698,1862,-9.95,21.91
49923,3716,1764,-38.4,22.74
49924,3718,1773,-54.47,24.32
49924,3720,1803,-55.57,25.89
49924,3722,1840,-44.37,26.81
49924,3724,1871,-26.75,26.81
49925,3726,1877,-12.48,26.09
49925,3728,1877,-2.5,24.91
49925,3730,1863,0.19,23.68
49925,3732,1825,-9.38,22.96
49925,3734,1789,-26.68,23.15
49925,3736,1774,-42.89,24.13
49926,3738,1758,-58.64,25.86
49926,3740,1752,-71.09,28.12
49926,3742,1774,-72.95,30.36
49926,3745,1806,-64.74,32.08
49926,3747,1817,-56.18,33.29
49926,3749,1836,-45.12,33.88
49927,3751,1833,-39.02,34.14
49927,3753,1823,-38.35,34.35
49991,3755,1817,-40.0,34.63
49992,3759,1806,-44.5,35.12
49992,3778,1854,-32.98,35.01
49992,3780,1872,-19.47,34.24
49993,3782,1865,-11.98,33.12
49993,3784,1845,-12.36,32.09
49993,3786,1818,-20.02,31.48
49993,3788,1791,-32.45,31.53
49993,3790,1776,-44.42,32.18
49994,3793,1792,-46.78,32.91
49994,3795,1804,-43.99,33.46
49994,3798,1825,-35.3,33.55
49994,3800,1838,-25.36,33.14
49994,3802,1839,-18.55,32.41
49994,3804,1832,-16.56,31.62
49995,3806,1813,-21.64,31.12
49995,3808,1770,-38.77,31.5
49995,3810,1749,-57.36,32.8
49995,3812,1731,-75.86,34.95
49995,3814,1738,-86.59,37.53
49995,3816,1767,-85.27,39.92
50035,3819,1799,-74.77,41.66
50035,3823,1832,-57.7,42.46
50036,3843,1802,-55.05,43.09
50036,3845,1810,-50.62,43.47
50036,3848,1823,-43.31,43.46
50036,3850,1816,-39.93,43.28
50037,3852,1807,-39.7,43.11
50037,3854,1795,-42.39,43.07
50037,3856,1785,-46.41,43.24
50037,3858,1776,-51.03,43.63
50037,3860,1778,-52.8,44.08
50037,3862,1789,-50.09,44.39
50038,3864,1793,-46.68,44.5
50038,3866,1793,-44.25,44.49
50038,3868,1800,-40.62,44.29
50038,3870,1806,-36.71,43.92
50038,3872,1807,-34.28,43.43
50038,3875,1810,-32.34,42.88
50039,3877,1810,-31.65,42.32
50039,3879,1809,-32.05,41.8
50039,3881,1806,-33.64,41.4
50040,3883,1809,-34.04,41.03
50088,3887,1797,-37.9,40.87
50089,3894,1763,-50.46,41.35
50089,3896,1759,-59.62,42.26
50089,3898,1747,-68.64,43.58
50089,3901,1707,-85.83,45.7
50090,3903,1708,-96.15,48.22
50090,3905,1721,-98.22,50.72
50090,3907,1744,-91.9,52.78
50090,3909,1776,-77.49,54.01
50090,3911,1795,-61.89,54.41
50091,3913,1805,-48.55,54.11
50091,3915,1818,-36.14,53.22
50091,3917,1819,-28.15,51.96
50091,3920,1809,-26.51,50.69
50091,3922,1809,-26.1,49.46
50091,3924,1811,-25.73,48.27
50092,3926,1809,-26.34,47.18
50092,3928,1793,-31.54,46.4
50092,3930,1777,-39.52,46.05
50092,3932,1761,-49.08,46.2
50092,3934,1748,-58.54,46.82
50136,3936,1745,-64.76,47.72
50136,3942,1732,-71.74,48.92
50137,3944,1726,-77.19,50.33
50137,3946,1720,-81.77,51.9
50137,3948,1744,-77.01,53.16
50137,3950,1782,-62.08,53.61
50137,3953,1804,-45.5,53.2
50138,3955,1795,-37.52,52.42
50138,3957,1780,-37.42,51.67
50138,3959,1776,-39.45,51.06
50138,3961,1771,-43.2,50.66
50138,3963,1771,-46.46,50.45
50139,3965,1784,-45.28,50.19
50139,3967,1780,-45.94,49.98
50139,3969,1773,-48.46,49.91
50139,3971,1763,-52.82,50.05
50139,3973,1757,-56.92,50.4
50139,3975,1741,-63.6,51.06
50140,3977,1735,-68.82,51.94
50140,3979,1748,-67.28,52.71
50140,3982,1754,-63.32,53.24
50186,3984,1746,-62.11,53.68
50186,3989,1746,-60.59,54.03
50186,3991,1742,-60.34,54.35
50186,3993,1726,-64.84,54.87
50187,3995,1730,-66.81,55.47
50187,3998,1728,-69.11,56.15
50187,4000,1739,-67.92,56.74
50187,4003,1744,-66.31,57.22
50187,4005,1764,-59.97,57.35
50188,4007,1788,-49.23,56.95
50188,4009,1794,-40.83,56.14
50188,4011,1781,-39.54,55.31
50188,4013,1767,-43.06,54.7
50188,4016,1744,-52.17,54.57
50188,4018,1726,-63.16,55.0
50189,4020,1709,-74.73,55.99
50189,4022,1701,-83.71,57.37
50189,4024,1704,-87.5,58.88
50189,4026,1714,-85.67,60.22
50189,4028,1724,-80.22,61.22
50189,4030,1713,-78.92,62.11
50231,4032,1704,-80.17,63.01
50232,4038,1743,-69.09,63.31
50232,4040,1772,-53.08,62.8
50232,4042,1778,-41.05,61.71
50232,4044,1761,-38.9,60.57
50233,4046,1733,-46.86,59.89
50233,4048,1704,-61.87,59.99
50234,4050,1706,-72.1,60.59
50234,4053,1736,-70.42,61.08
50234,4055,1781,-55.93,60.83
50234,4057,1815,-35.88,59.58
50235,4059,1820,-20.61,57.63
50235,4061,1807,-13.78,55.44
50235,4063,1790,-13.6,53.35
50236,4065,1774,-17.36,51.55
50236,4067,1760,-22.97,50.12
50236,4069,1747,-29.4,49.08
50236,4071,1723,-39.67,48.61
50237,4073,1706,-50.55,48.71
50237,4075,1713,-54.84,49.02
50237,4077,1742,-48.41,48.99
50238,4079,1778,-33.1,48.19
50285,4084,1825,-9.02,46.23
50285,4090,1785,-5.64,44.2
50286,4092,1765,-10.58,42.52
50286,4094,1743,-21.82,41.49
50286,4096,1742,-30.93,40.96
50287,4098,1734,-40.49,40.94
50287,4100,1729,-49.16,41.35
50287,4102,1742,-51.48,41.85
50287,4106,1776,-42.84,41.9
50287,4108,1787,-33.42,41.48
50288,4110,1794,-24.41,40.63
50288,4112,1804,-14.56,39.32
50288,4114,1806,-6.37,37.67
50288,4116,1807,0.5,35.82
50288,4118,1801,4.42,34.25
50288,4120,1780,1.8,32.62
50289,4122,1755,-6.53,31.32
50289,4124,1744,-14.65,30.49
50289,4126,1750,-17.75,29.85
50289,4128,1754,-18.36,29.27
50289,4131,1769,-14.36,28.53
50291,4133,1773,-10.93,27.65
50291,4137,1791,-4.02,26.47
50338,4140,1808,4.68,25.38
50339,4145,1850,21.93,25.21
50339,4147,1854,33.46,25.62
50339,4149,1833,33.72,26.02
50339,4151,1800,23.04,25.87
50340,4153,1763,4.23,24.79
50340,4155,1730,-18.33,24.47
50340,4157,1716,-37.15,25.1
50340,4159,1745,-40.09,25.85
50340,4161,1777,-31.17,26.12
50341,4163,1800,-16.92,25.66
50341,4166,1814,-1.94,24.47
50341,4168,1815,9.36,23.72
50341,4170,1813,16.97,23.38
50341,4172,1808,20.87,23.25
50342,4174,1799,20.76,23.13
50342,4176,1767,10.77,22.51
50342,4178,1741,-4.27,21.6
50342,4180,1733,-17.42,21.39
50342,4182,1735,-26.34,21.64
50342,4184,1735,-33.06,22.21
50387,4186,1745,-35.29,22.86
50387,4191,1813,-17.07,22.57
50387,4194,1849,5.37,21.71
50388,4196,1859,22.86,21.77
50388,4198,1845,29.91,22.18
50388,4200,1809,23.59,22.25
50388,4202,1777,9.82,21.63
50389,4204,1743,-9.13,21.0
50389,4208,1711,-30.56,21.48
50389,4210,1705,-45.54,22.68
50389,4212,1712,-52.14,24.16
50389,4214,1744,-45.64,25.23
50389,4216,1773,-31.5,25.54
50390,4218,1795,-14.75,25.0
50390,4220,1799,-2.16,23.86
50390,4222,1803,7.14,23.03
50390,4224,1796,10.53,22.4
50390,4226,1803,13.88,21.98
50391,4228,1811,17.37,21.75
50391,4230,1797,14.34,21.37
50391,4232,1775,4.65,20.54
50434,4235,1755,-8.65,19.94
50434,4240,1719,-28.83,20.39
50434,4242,1723,-41.2,21.43
50435,4244,1720,-50.02,22.86
50435,4246,1721,-54.94,24.46
50435,4248,1727,-55.54,26.02
50435,4251,1740,-51.05,27.27
50436,4253,1747,-44.98,28.15
50436,4255,1764,-34.99,28.5
50436,4257,1777,-23.77,28.26
50436,4259,1774,-16.8,27.69
50436,4261,1775,-11.74,26.89
50437,4263,1779,-7.3,25.91
50437,4265,1780,-4.34,24.83
50437,4267,1772,-5.22,23.85
50437,4269,1762,-9.34,23.13
50437,4271,1753,-15.3,22.73
50438,4273,1738,-24.23,22.81
50438,4275,1733,-32.0,23.27
50438,4278,1759,-29.53,23.58
50438,4280,1783,-20.62,23.43
50439,4282,1788,-13.01,22.91
50440,4286,1758,-16.71,22.6
50488,4288,1719,-30.63,23.0
50488,4293,1730,-36.3,23.67
50488,4295,1732,-38.96,24.43
50488,4297,1743,-36.89,25.06
50489,4299,1754,-31.69,25.39
50489,4301,1776,-21.2,25.18
50489,4304,1809,-4.03,24.12
50489,4306,1839,16.52,23.74
50490,4308,1835,28.93,24.0
50490,4311,1818,31.79,24.39
50490,4313,1810,30.89,24.71
50490,4315,1797,26.03,24.78
50490,4317,1787,19.53,24.52
50490,4319,1782,13.57,23.97
50491,4321,1775,7.54,23.15
50491,4323,1768,1.57,22.07
50491,4325,1754,-6.35,21.28
50491,4327,1703,-26.64,21.55
50492,4329,1678,-47.42,22.85
50492,4331,1658,-66.97,25.05
50492,4334,1679,-73.44,27.47
50494,4336,1722,-64.61,29.33
50494,4340,1837,-24.15,29.07
50547,4344,1862,10.22,28.13
50547,4348,1843,26.86,28.06
50548,4350,1814,28.36,28.08
50548,4352,1793,22.13,27.78
50548,4354,1778,12.75,27.03
50548,4356,1761,1.0,25.73
50548,4358,1747,-11.04,24.99
50548,4360,1739,-21.12,24.8
50549,4362,1724,-31.67,25.14
50549,4364,1723,-38.13,25.79
50549,4366,1747,-34.25,26.22
50549,4368,1777,-21.65,25.99
50550,4370,1794,-7.31,25.05
50550,4373,1814,8.8,24.24
50550,4375,1826,23.35,24.2
50550,4377,1821,31.44,24.56
50550,4379,1776,22.91,24.48
50551,4381,1763,12.67,23.89
50551,4383,1771,7.6,23.07
50551,4385,1778,5.74,22.21
50552,4387,1792,8.18,21.5
50590,4389,1798,11.19,20.99
50590,4393,1806,15.24,20.7
50591,4395,1787,12.02,20.27
50591,4398,1753,-0.46,19.28
50591,4400,1720,-18.65,19.25
50592,4403,1731,-27.25,19.65
50592,4406,1753,-25.89,19.96
50592,4408,1786,-14.5,19.68
50592,4410,1797,-3.02,18.85
50593,4413,1804,7.15,18.27
50593,4415,1797,12.06,17.96
50593,4417,1791,13.6,17.74
50593,4419,1776,10.05,17.35
50593,4421,1778,8.13,16.89
50593,4423,1784,8.45,16.47
50594,4425,1771,4.55,15.87
50594,4427,1769,1.09,15.14
50594,4429,1771,-0.86,14.42
50594,4432,1763,-4.77,13.94
50594,4434,1753,-10.57,13.77
50594,4436,1757,-13.38,13.75
50595,4438,1764,-13.22,13.73
50642,4443,1806,-0.51,13.06
50642,4449,1816,11.05,12.96
50642,4451,1792,11.59,12.89
50643,4453,1764,3.52,12.43
50643,4455,1756,-4.25,12.02
50643,4457,1744,-12.88,12.06
50643,4459,1741,-19.31,12.42
50643,4461,1728,-27.21,13.16
50644,4463,1742,-28.0,13.9
50644,4466,1744,-27.65,14.59
50644,4468,1776,-17.65,14.74
50644,4470,1832,5.88,14.3
50644,4472,1870,32.93,15.23
50645,4474,1876,52.49,17.1
50645,4476,1862,60.88,19.28
50645,4478,1837,58.45,21.24
50645,4480,1794,43.49,22.36
50645,4482,1775,27.57,22.62
50645,4484,1747,8.6,21.92
50646,4486,1741,-5.54,21.1
50646,4488,1740,-14.74,20.78
50648,4490,1748,-17.85,20.63
50648,4494,1773,-11.83,20.19
50697,4498,1787,-3.14,19.34
50697,4502,1806,8.57,18.8
50698,4504,1811,17.84,18.75
50698,4506,1828,28.79,19.26
50698,4508,1823,34.07,20.0
50698,4510,1808,32.41,20.62
50699,4512,1789,24.87,20.83
50699,4515,1747,6.58,20.12
50699,4517,1727,-12.15,19.72
50699,4519,1723,-26.11,20.04
50699,4521,1732,-32.72,20.67
50699,4524,1742,-33.91,21.33
50700,4526,1778,-23.6,21.45
50700,4528,1814,-5.53,20.65
50701,4530,1825,10.15,20.13
50701,4532,1838,24.72,20.36
50701,4534,1843,36.04,21.14
50701,4536,1823,37.65,21.97
50701,4538,1799,31.52,22.44
50702,4540,1774,19.97,22.32
50702,4542,1725,-2.32,21.32
50743,4544,1690,-27.53,21.63
50744,4550,1774,-18.89,21.49
50744,4552,1852,10.7,20.95
50744,4554,1904,46.31,22.22
50744,4556,1918,74.19,24.82
50744,4558,1899,86.65,27.91
50745,4561,1866,84.4,30.74
50745,4563,1826,70.22,32.71
50745,4565,1791,49.73,33.56
50745,4567,1776,31.29,33.45
50745,4569,1776,19.01,32.73
50745,4571,1774,10.48,31.61
50746,4573,1779,6.66,30.37
50746,4575,1793,8.7,29.28
50746,4577,1799,12.2,28.43
50746,4579,1814,19.2,27.97
50746,4581,1815,24.17,27.78
50747,4583,1816,27.58,27.77
50747,4585,1810,27.67,27.76
50747,4587,1805,25.74,27.66
50747,4590,1805,23.92,27.47
50790,4592,1791,17.97,27.0
50791,4597,1754,2.42,25.77
50791,4599,1756,-7.75,24.87
50791,4601,1779,-7.83,24.02
50791,4603,1800,-1.6,22.9
50791,4605,1803,3.53,21.93
50792,4607,1806,7.93,21.23
50792,4609,1817,14.29,20.88
50792,4611,1816,18.39,20.76
50792,4614,1800,16.49,20.54
50792,4617,1774,7.61,19.9
50793,4619,1771,0.97,18.95
50793,4621,1780,-0.49,18.03
50793,4623,1802,5.42,17.4
50793,4625,1814,13.19,17.19
50793,4627,1811,17.57,17.21
50793,4630,1807,19.23,17.31
50794,4632,1795,16.54,17.27
50794,4634,1785,11.47,16.98
50795,4636,1787,8.38,16.55
50837,4638,1797,9.03,16.17
50844,4644,1803,11.0,15.91
50851,4646,1805,12.67,15.75
50857,4648,1805,13.56,15.64
50858,4650,1818,17.87,15.75
50858,4652,1828,23.65,16.15
50859,4654,1815,23.57,16.52
50859,4656,1798,18.42,16.62
50859,4658,1775,8.18,16.19
50860,4660,1742,-8.38,15.8
50860,4662,1730,-22.77,16.15
50860,4665,1731,-31.71,16.93
50860,4667,1712,-42.98,18.23
50860,4669,1691,-56.52,20.15
50861,4671,1686,-66.9,22.48
50861,4673,1730,-60.59,24.39
50861,4675,1784,-40.27,25.18
50861,4677,1824,-15.01,24.67
50862,4679,1853,9.98,23.94
50862,4681,1845,23.48,23.92
50862,4683,1838,29.52,24.2
50862,4685,1839,33.11,24.64
50863,4689,1812,26.95,24.76
50863,4692,1796,17.9,24.41
50893,4694,1762,1.95,23.29
50894,4698,1728,-18.24,23.04
50894,4700,1749,-24.43,23.11
50894,4702,1776,-19.2,22.91
50895,4705,1808,-4.81,22.01
50895,4707,1828,11.89,21.5
50895,4709,1829,24.1,21.63
50895,4711,1830,32.87,22.19
50895,4713,1833,39.56,23.06
50896,4715,1826,41.52,23.99
50896,4717,1808,36.75,24.62
50896,4720,1793,28.18,24.8
50896,4722,1776,16.42,24.38
50896,4724,1755,1.35,23.23
50896,4726,1746,-12.21,22.68
50897,4728,1727,-27.57,22.92
50897,4730,1705,-44.85,24.02
50897,4732,1684,-62.89,25.96
50897,4735,1728,-61.71,27.75
50897,4737,1791,-41.75,28.45
50897,4739,1849,-10.64,27.56
50899,4741,1878,19.15,27.14
50900,4745,1833,25.73,27.07
50905,4748,1805,21.78,26.81
50952,4753,1778,11.2,26.02
50952,4759,1775,3.55,24.9
50953,4761,1781,0.75,23.69
50953,4763,1792,2.8,22.65
50953,4765,1795,5.67,21.8
50953,4767,1804,10.78,21.25
50954,4769,1820,19.33,21.15
50954,4771,1836,29.97,21.59
50954,4773,1841,38.49,22.44
50954,4775,1833,41.47,23.39
50954,4777,1814,37.27,24.08
50954,4779,1803,30.58,24.41
50955,4781,1805,26.15,24.5
50955,4784,1813,25.1,24.53
50955,4786,1823,27.0,24.65
50955,4788,1828,29.47,24.89
50955,4790,1844,35.71,25.43
50955,4792,1848,40.97,26.21
50956,4794,1852,45.67,27.18
50956,4796,1852,48.88,28.27
50956,4798,1834,45.79,29.14
50959,4800,1789,30.45,29.21
50959,4804,1732,3.39,27.92
51009,4807,1763,-5.01,26.77
51010,4811,1829,9.69,25.92
51010,4814,1840,23.29,25.79
51010,4816,1846,34.31,26.21
51011,4818,1852,43.32,27.07
51011,4822,1843,46.22,28.03
51011,4824,1851,49.96,29.12
51011,4826,1852,52.09,30.27
51011,4828,1849,51.93,31.35
51011,4830,1821,42.77,31.93
51012,4832,1816,34.61,32.06
51012,4834,1813,27.92,31.85
51012,4839,1822,26.03,31.56
51012,4841,1795,16.73,30.82
51012,4843,1807,14.29,29.99
51012,4845,1835,21.38,29.56
51013,4847,1844,29.2,29.54
51013,4850,1850,36.54,29.89
51013,4852,1843,39.58,30.38
51013,4854,1829,37.52,30.74
51013,4856,1809,30.16,30.71
51056,4859,1819,28.19,30.58
51057,4863,1784,16.3,29.87
51057,4865,1787,9.06,28.83
51057,4867,1809,10.63,27.92
51057,4869,1827,16.84,27.36
51057,4871,1840,24.55,27.22
51058,4873,1852,32.86,27.5
51058,4875,1849,37.02,27.98
51058,4877,1856,41.39,28.65
51058,4879,1859,44.77,29.46
51058,4881,1853,44.92,30.23
51058,4883,1840,40.95,30.77
51058,4885,1842,38.89,31.17
51059,4888,1854,41.33,31.68
51059,4890,1868,47.51,32.47
51059,4892,1862,50.29,33.36
51059,4894,1870,54.96,34.44
51059,4896,1864,56.69,35.55
51059,4898,1850,53.95,36.47
51059,4900,1829,46.02,36.95
51060,4902,1817,37.19,36.96
51062,4904,1807,28.25,36.53
51062,4908,1846,33.82,36.39
51110,4911,1861,41.76,36.66
51110,4916,1859,45.97,37.13
51111,4918,1848,44.79,37.51
51111,4920,1860,46.78,37.97
51111,4922,1867,49.42,38.55
51111,4925,1854,46.54,38.95
51112,4927,1839,39.48,38.97
51112,4929,1839,34.31,38.74
51112,4931,1822,25.56,38.08
51112,4933,1810,16.13,36.98
51112,4935,1815,11.58,35.71
51112,4937,1852,20.07,34.93
51113,4939,1890,37.7,35.07
51113,4941,1918,58.39,36.24
51113,4943,1903,68.08,37.83
51113,4946,1872,65.41,39.21
51113,4948,1856,58.86,40.19
51113,4950,1843,50.57,40.71
51113,4952,1829,40.79,40.71
51113,4954,1829,34.17,40.39
51114,4956,1854,37.1,40.22
51116,4958,1875,45.14,40.47
51116,4963,1892,55.26,41.21
51164,4966,1889,60.6,42.18
51164,4970,1890,63.82,43.26
51164,4972,1880,62.31,44.21
51165,4974,1865,56.17,44.81
51165,4976,1866,51.87,45.16
51165,4978,1871,50.19,45.41
51165,4980,1878,51.03,45.69
51166,4982,1894,56.43,46.23
51166,4984,1912,65.6,47.2
51166,4987,1904,69.55,48.32
51166,4989,1901,71.5,49.48
51166,4991,1905,74.25,50.72
51166,4993,1891,72.12,51.79
51166,4995,1870,64.58,52.43
51167,4997,1863,57.55,52.68
51167,4999,1864,53.22,52.71
51167,5001,1866,50.89,52.62
51167,5003,1879,53.07,52.64
51168,5005,1888,56.89,52.85
51168,5007,1879,56.25,53.02
51168,5009,1870,52.45,52.99
51212,5011,1866,47.96,52.74
51213,5016,1865,43.92,52.3
51213,5019,1889,47.74,52.07
51213,5021,1870,44.03,51.67
51214,5023,1851,35.35,50.86
51214,5027,1846,27.71,49.7
51214,5029,1858,26.08,48.52
51214,5031,1884,32.87,47.73
51214,5033,1905,43.93,47.54
51215,5035,1920,56.09,47.97
51215,5037,1931,67.79,48.96
51215,5039,1935,77.04,50.37
51215,5041,1911,76.22,51.66
51215,5043,1889,69.21,52.54
51215,5045,1874,60.15,52.92
51216,5048,1854,48.23,52.68
51216,5050,1835,34.67,51.78
51216,5052,1832,24.75,50.43
51216,5054,1845,21.97,49.01
51216,5056,1852,22.04,47.66
51216,5058,1844,19.3,46.24
51259,5060,1853,19.59,44.91
51259,5066,1852,18.76,43.6
51259,5068,1840,13.8,42.11
51260,5070,1819,3.36,40.17
51260,5072,1820,-4.08,38.37
51260,5074,1850,-0.63,36.48
51260,5076,1877,9.42,35.13
51260,5078,1897,21.95,34.47
51261,5080,1900,31.16,34.3
51261,5082,1880,31.41,34.16
51261,5084,1857,24.91,33.7
51261,5086,1853,19.8,33.0
51261,5088,1859,18.85,32.29
51261,5091,1852,16.89,31.52
51262,5093,1852,16.35,30.77
51262,5095,1854,17.28,30.09
51262,5097,1844,15.44,29.36
51262,5099,1856,18.09,28.8
51262,5101,1886,28.92,28.8
51262,5103,1908,42.54,29.49
51262,5105,1928,57.13,30.87
51307,5108,1937,68.79,32.77
51307,5112,1899,64.22,34.34
51307,5114,1860,48.41,35.04
51308,5116,1841,31.23,34.85
51308,5118,1810,9.81,33.6
51308,5120,1806,-6.05,32.22
51308,5122,1820,-12.45,31.23
51308,5124,1836,-11.68,30.26
51309,5127,1844,-8.39,29.16
51309,5130,1856,-2.17,27.81
51309,5132,1841,-2.11,26.53
51309,5134,1822,-7.47,25.57
51309,5136,1811,-14.1,25.0
51309,5138,1817,-16.53,24.58
51310,5140,1828,-14.71,24.08
51310,5142,1843,-8.94,23.33
51310,5144,1841,-5.78,22.45
51310,5146,1811,-12.92,21.97
51310,5148,1783,-26.46,22.2
51310,5150,1772,-39.18,23.05
51310,5152,1766,-49.79,24.38
51313,5154,1784,-51.7,25.75
51360,5159,1866,-28.52,25.89
51361,5166,1867,-12.78,25.23
51362,5168,1837,-11.44,24.54
51363,5170,1823,-14.97,24.06
51364,5172,1826,-16.5,23.69
51377,5174,1813,-21.3,23.57
51377,5176,1832,-18.51,23.31
51378,5178,1855,-9.28,22.61
51379,5180,1860,-1.05,21.53
51379,5182,1863,5.88,20.75
51380,5184,1871,13.42,20.39
51380,5186,1864,16.79,20.21
51380,5189,1837,11.29,19.76
51381,5191,1825,4.24,18.98
51381,5193,1801,-7.49,18.41
51381,5195,1817,-10.45,18.01
51382,5197,1826,-9.7,17.6
51382,5199,1847,-3.01,16.87
51382,5201,1864,6.29,16.34
51383,5203,1878,16.27,16.33
51383,5205,1893,26.88,16.86
51383,5207,1894,33.65,17.7
51383,5211,1861,27.66,18.2
51414,5213,1830,13.82,17.98
51415,5219,1790,-7.73,17.47
51415,5221,1804,-17.95,17.49
51415,5223,1825,-18.16,17.53
51415,5225,1861,-6.99,17.0
51416,5227,1879,6.47,16.47
51416,5229,1889,18.98,16.6
51416,5232,1890,28.03,17.17
51416,5234,1883,32.25,17.92
51417,5236,1870,31.33,18.59
51417,5238,1870,30.77,19.2
51417,5241,1864,28.62,19.67
51417,5243,1830,16.92,19.54
51418,5245,1799,-0.33,18.58
51418,5247,1787,-15.62,18.43
51419,5249,1778,-28.69,18.94
51420,5251,1785,-35.48,19.77
51425,5253,1808,-33.33,20.45
51426,5255,1823,-27.66,20.81
51426,5257,1825,-23.66,20.95
51426,5259,1838,-17.57,20.78
51461,5261,1865,-5.89,20.04
51461,5267,1877,5.07,19.29
51461,5269,1864,8.11,18.73
51462,5271,1840,2.69,17.93
51462,5274,1840,-0.98,17.08
51462,5276,1854,1.01,16.28
51462,5278,1862,5.26,15.73
51462,5280,1865,9.66,15.42
51462,5282,1867,13.95,15.35
51462,5284,1842,10.08,15.09
51463,5286,1808,-2.02,14.43
51463,5288,1813,-8.01,14.11
51463,5290,1807,-13.28,14.07
51463,5292,1815,-14.09,14.07
51463,5294,1832,-9.44,13.84
51463,5296,1853,-0.23,13.16
51463,5298,1864,8.74,12.94
51463,5300,1875,17.28,13.15
51464,5303,1893,27.45,13.87
51464,5305,1886,31.16,14.73
51464,5307,1874,29.07,15.45
51509,5309,1873,26.59,16.01
51510,5314,1832,12.13,15.81
51510,5316,1840,4.69,15.26
51510,5318,1841,0.26,14.51
51510,5320,1863,4.46,14.01
51511,5322,1885,14.68,14.04
51511,5324,1916,31.71,14.92
51511,5326,1894,37.37,16.04
51511,5328,1881,37.96,17.14
51511,5331,1882,39.24,18.25
51511,5334,1836,26.73,18.67
51511,5336,1825,15.28,18.5
51512,5338,1825,7.7,17.96
51512,5340,1821,1.31,17.13
51512,5342,1832,-0.01,16.27
51512,5344,1856,5.74,15.75
51512,5346,1859,9.71,15.44
51512,5348,1879,17.41,15.54
51512,5351,1901,28.13,16.17
51513,5353,1898,33.4,17.03
51513,5355,1876,29.4,17.65
51515,5357,1864,22.44,17.89
51516,5361,1838,9.66,17.48
51562,5365,1867,9.87,17.1
51563,5369,1862,9.01,16.69
51563,5371,1855,7.07,16.21
51563,5373,1851,5.5,15.68
51563,5375,1852,5.76,15.18
51563,5377,1875,13.83,15.11
51564,5379,1903,28.52,15.78
51564,5381,1904,39.28,16.96
51564,5383,1893,43.46,18.28
51564,5385,1882,42.89,19.51
51564,5388,1858,34.96,20.29
51564,5390,1847,25.78,20.56
51565,5392,1854,21.04,20.59
51565,5394,1859,18.59,20.49
51565,5396,1871,19.73,20.45
51565,5398,1891,25.67,20.71
51565,5400,1903,32.47,21.3
51565,5402,1888,31.83,21.82
51565,5404,1880,28.45,22.15
51566,5406,1856,18.7,21.98
51566,5408,1822,1.96,20.98
51611,5410,1803,-14.66,20.66
51611,5415,1822,-19.49,20.61
51612,5418,1834,-18.31,20.49
51612,5420,1854,-10.67,20.0
51612,5422,1853,-5.1,19.25
51612,5424,1869,3.98,18.49
51612,5426,1905,21.17,18.62
51612,5428,1926,39.05,19.65
51613,5431,1943,55.89,21.46
51613,5433,1935,64.27,23.6
51613,5436,1893,56.62,25.25
51613,5438,1867,42.97,26.14
51613,5440,1850,28.13,26.24
51613,5442,1854,18.99,25.87
51613,5444,1857,13.57,25.26
51613,5446,1871,14.1,24.7
51614,5448,1875,15.71,24.25
51614,5451,1860,12.4,23.66
51614,5453,1850,7.3,22.84
51614,5455,1856,5.85,21.99
51614,5457,1847,2.37,21.01
51662,5459,1852,1.69,20.04
51662,5464,1874,7.95,19.44
51662,5467,1880,14.01,19.17
51663,5469,1908,26.39,19.53
51663,5471,1919,37.82,20.44
51663,5473,1933,49.39,21.89
51663,5475,1948,61.29,23.86
51663,5477,1934,64.69,25.9
51663,5479,1911,59.73,27.59
51664,5481,1889,49.57,28.69
51664,5483,1863,34.9,29.0
51664,5485,1829,15.01,28.3
51664,5487,1804,-5.52,27.16
51664,5489,1791,-22.75,26.94
51665,5491,1775,-38.62,27.53
51665,5494,1807,-39.24,28.11
51665,5496,1868,-21.07,27.76
51665,5498,1914,4.91,26.62
51665,5500,1930,26.75,26.62
51665,5502,1926,39.45,27.27
51665,5504,1918,44.62,28.13
51666,5506,1895,40.21,28.74
51710,5508,1873,29.81,28.79
51710,5513,1877,23.48,28.53
51711,5515,1894,24.12,28.31
51711,5518,1909,29.14,28.35
51711,5520,1904,31.36,28.5
51711,5522,1887,28.27,28.49
51711,5524,1884,25.95,28.36
51711,5526,1885,25.46,28.21
51712,5528,1890,27.41,28.17
51712,5530,1918,37.81,28.66
51712,5532,1943,52.8,29.86
51712,5534,1951,65.49,31.64
51712,5536,1950,73.61,33.74
51712,5539,1936,74.47,35.78
51712,5541,1918,69.06,37.44
51712,5543,1917,64.42,38.79
51713,5545,1897,54.57,39.58
51713,5547,1874,40.33,39.62
51713,5550,1866,27.74,39.02
51713,5552,1888,25.39,38.34
51713,5554,1898,26.44,37.75
51716,5556,1906,29.25,37.32
51764,5560,1923,36.02,37.26
51765,5569,1871,24.81,36.63
51765,5571,1864,15.1,35.56
51766,5573,1866,9.28,34.24
51766,5575,1869,6.52,32.86
51766,5577,1887,10.36,31.73
51766,5579,1917,22.24,31.26
51766,5581,1925,32.84,31.34
51766,5583,1917,37.64,31.65
51767,5586,1909,38.41,31.99
51767,5588,1913,40.02,32.39
51767,5590,1909,39.74,32.76
51767,5592,1908,39.07,33.07
51767,5594,1904,37.21,33.28
51767,5596,1887,30.66,33.15
51767,5598,1884,25.16,32.75
51767,5600,1908,28.51,32.54
51768,5602,1934,38.43,32.83
51768,5604,1959,52.43,33.81
51768,5606,1981,68.21,35.53
51768,5608,1992,81.83,37.85
51811,5610,1942,75.69,39.74
51812,5614,1903,59.6,40.73
51812,5617,1891,45.14,40.95
51812,5620,1887,34.38,40.62
51812,5622,1881,25.64,39.88
51812,5624,1859,13.51,38.56
51813,5626,1851,3.27,36.79
51813,5628,1878,4.74,35.19
51813,5630,1910,15.43,34.2
51813,5632,1935,29.99,33.99
51813,5635,1963,47.75,34.68
51813,5637,1956,56.94,35.79
51814,5639,1938,56.88,36.85
51814,5642,1919,50.3,37.52
51814,5644,1895,37.96,37.54
51814,5646,1868,21.07,36.72
51814,5648,1855,5.6,35.16
51814,5650,1862,-2.63,33.54
51815,5652,1872,-4.88,32.1
51815,5654,1886,-1.79,30.59
51815,5656,1890,1.92,29.15
51860,5658,1871,-0.9,27.74
51860,5663,1902,6.81,26.69
51861,5666,1917,16.73,26.2
51861,5668,1922,24.97,26.13
51861,5670,1920,29.82,26.32
51861,5672,1901,27.17,26.36
51861,5674,1884,19.99,26.04
51862,5676,1881,13.98,25.44
51862,5678,1863,4.29,24.38
51862,5681,1851,-6.03,23.47
51862,5683,1868,-8.01,22.69
51862,5685,1878,-6.44,21.88
51862,5687,1875,-6.38,21.1
51863,5689,1883,-4.05,20.25
51863,5691,1903,3.42,19.41
51863,5693,1891,4.74,18.68
51863,5695,1880,2.23,17.85
51863,5697,1883,1.4,17.03
51863,5699,1877,-0.92,16.23
51863,5701,1864,-6.27,15.73
51864,5703,1861,-10.6,15.47
51864,5705,1866,-11.79,15.29
51908,5707,1869,-11.44,15.1
51908,5712,1901,-1.4,14.41
51908,5715,1879,-1.1,13.75
51908,5717,1891,2.73,13.19
51908,5719,1871,-0.73,12.57
51909,5721,1864,-5.23,12.2
51909,5723,1872,-5.95,11.89
51909,5725,1886,-2.33,11.41
51909,5727,1883,-0.92,10.89
51909,5730,1873,-3.12,10.5
51909,5732,1873,-4.75,10.21
51909,5734,1864,-8.65,10.13
51909,5736,1852,-14.93,10.37
51910,5738,1841,-22.45,10.98
51910,5740,1827,-31.62,12.01
51910,5742,1809,-43.04,13.56
51910,5744,1808,-50.82,15.42
51910,5746,1821,-51.91,17.25
51910,5748,1835,-48.24,18.8
51910,5750,1846,-42.35,19.98
51911,5752,1858,-34.78,20.72
51955,5755,1834,-36.99,21.53
51956,5762,1841,-36.54,22.28
51956,5764,1875,-26.18,22.48
51956,5766,1904,-10.65,21.88
51957,5768,1915,2.95,20.94
51957,5770,1906,9.24,20.35
51957,5772,1889,8.28,19.75
51957,5774,1854,-2.79,18.9
51957,5776,1814,-21.97,19.05
51957,5778,1790,-41.56,20.18
51957,5780,1800,-51.04,21.72
51958,5782,1791,-59.33,23.6
51958,5785,1791,-64.17,25.63
51958,5787,1810,-61.15,27.41
51958,5789,1836,-50.98,28.59
51958,5791,1872,-33.3,28.82
51958,5793,1895,-14.81,28.12
51959,5795,1904,-0.27,26.73
51959,5797,1883,2.41,25.51
51959,5799,1870,-0.54,24.26
51959,5801,1850,-9.23,23.51
52004,5804,1802,-29.95,23.83
52004,5808,1760,-56.64,25.47
52004,5810,1745,-78.83,28.14
52005,5812,1746,-92.85,31.38
52005,5815,1785,-89.74,34.3
52005,5817,1820,-76.25,36.39
52005,5819,1842,-59.79,37.56
52006,5821,1861,-42.46,37.81
52006,5823,1889,-22.09,37.02
52006,5825,1890,-8.0,35.57
52006,5827,1879,-1.94,33.89
52006,5829,1870,-0.77,32.23
52006,5831,1854,-5.01,30.87
52007,5833,1847,-10.12,29.84
52007,5835,1848,-13.31,29.01
52007,5837,1841,-17.51,28.43
52007,5840,1817,-27.39,28.38
52007,5842,1797,-39.82,28.95
52007,5844,1785,-51.47,30.08
52008,5847,1780,-60.44,31.6
52008,5849,1794,-61.9,33.11
52010,5851,1794,-62.57,34.59
52010,5856,1829,-52.35,35.47
52058,5858,1829,-45.46,35.97
52058,5863,1819,-43.98,36.37
52058,5866,1813,-45.07,36.81
52058,5868,1808,-47.6,37.35
52059,5870,1809,-49.27,37.94
52059,5872,1811,-49.99,38.55
52059,5874,1819,-48.18,39.03
52059,5876,1824,-45.44,39.35
52059,5878,1830,-41.68,39.47
52059,5880,1818,-42.52,39.62
52059,5882,1808,-45.75,39.92
52060,5884,1797,-50.77,40.47
52060,5886,1787,-56.59,41.27
52060,5888,1782,-61.39,42.28
52060,5890,1789,-61.9,43.26
52060,5892,1788,-61.97,44.2
52061,5895,1785,-62.48,45.11
52061,5897,1820,-52.04,45.46
52061,5899,1877,-27.82,44.57
52061,5901,1915,-0.26,42.36
52061,5903,1929,22.07,41.34
52107,5905,1926,35.6,41.06
52108,5909,1851,21.59,40.08
52108,5911,1810,-0.6,38.11
52108,5914,1766,-28.84,37.65
52108,5916,1755,-50.86,38.31
52108,5918,1772,-59.97,39.39
52109,5920,1770,-65.92,40.72
52109,5922,1805,-58.64,41.61
52109,5924,1838,-43.16,41.69
52109,5927,1874,-21.52,40.68
52109,5929,1879,-5.33,38.91
52109,5931,1870,2.71,37.1
52110,5933,1860,4.77,35.49
52110,5935,1845,1.24,33.77
52110,5937,1831,-5.74,32.37
52110,5939,1831,-10.75,31.29
52110,5941,1810,-20.6,30.76
52110,5943,1794,-32.08,30.82
52110,5945,1777,-44.79,31.52
52111,5948,1762,-57.6,32.82
52111,5950,1746,-70.65,34.72
52155,5952,1752,-77.21,36.84
52156,5957,1778,-73.38,38.67
52156,5962,1828,-55.47,39.51
52156,5964,1842,-39.06,39.49
52156,5966,1858,-23.29,38.68
52157,5968,1864,-11.12,37.3
52157,5970,1852,-6.86,35.78
52157,5972,1855,-3.42,34.16
52157,5974,1859,-0.12,32.46
52157,5976,1852,-0.09,30.84
52157,5978,1834,-5.38,29.57
52158,5980,1827,-10.78,28.63
52158,5982,1820,-16.07,28.0
52158,5985,1808,-22.65,27.73
52158,5987,1809,-26.14,27.65
52158,5989,1811,-27.24,27.63
52158,5991,1790,-33.72,27.93
52159,5993,1781,-40.36,28.56
52159,5995,1801,-38.57,29.06
52159,5997,1833,-27.69,28.99
52159,5999,1881,-6.16,27.85
52204,6001,1921,19.85,27.45
52205,6006,1887,26.42,27.4
52205,6009,1826,11.66,26.61
52205,6011,1789,-10.12,25.78
52205,6013,1768,-31.52,26.07
52206,6015,1775,-43.91,26.96
52206,6017,1781,-50.24,28.13
52206,6020,1782,-53.79,29.41
52206,6022,1780,-56.26,30.75
52206,6024,1784,-56.14,32.02
52207,6026,1794,-52.49,33.05
52207,6028,1822,-41.13,33.45
52207,6030,1878,-16.3,32.59
52207,6032,1924,14.38,31.68
52207,6034,1945,41.23,32.16
52208,6036,1944,58.7,33.49
52208,6038,1912,60.46,34.83
52208,6040,1862,46.29,35.41
52208,6042,1815,22.51,34.76
52208,6045,1781,-3.55,33.2
52208,6047,1766,-25.17,32.8
52254,6050,1803,-28.0,32.56
52255,6055,1809,-27.46,32.31
52255,6058,1830,-20.32,31.71
52255,6061,1830,-15.26,30.88
52256,6063,1831,-11.57,29.92
52256,6065,1842,-6.05,28.72
52256,6067,1841,-3.09,27.44
52256,6069,1843,-1.09,26.13
52256,6071,1848,1.09,24.87
52257,6073,1833,-2.59,23.76
52257,6075,1814,-11.32,23.14
52257,6077,1812,-18.16,22.89
52257,6079,1820,-20.5,22.77
52257,6081,1831,-18.69,22.56
52257,6083,1848,-12.12,22.04
52258,6085,1859,-4.02,21.14
52258,6087,1850,-0.82,20.12
52258,6090,1829,-4.47,19.34
52258,6092,1811,-11.79,18.96
52258,6094,1777,-26.33,19.33
52258,6096,1737,-47.53,20.74
52259,6098,1725,-64.83,22.95
52304,6100,1764,-64.27,25.01
52305,6105,1914,-18.59,24.69
52305,6107,1947,21.94,24.55
52305,6109,1937,45.55,25.6
52305,6112,1914,53.51,27.0
52305,6114,1891,50.87,28.19
52306,6116,1851,36.14,28.59
52306,6118,1813,14.2,27.87
52306,6120,1788,-8.28,26.89
52306,6122,1756,-32.78,27.19
52306,6124,1749,-50.76,28.36
52307,6126,1777,-53.59,29.63
52307,6128,1808,-45.23,30.41
52307,6130,1837,-30.04,30.39
52307,6132,1861,-12.0,29.47
52307,6134,1884,7.34,28.36
52307,6136,1892,22.73,28.08
52308,6138,1894,33.4,28.35
52308,6140,1891,39.19,28.89
52308,6143,1857,32.32,29.06
52308,6145,1827,18.15,28.51
52309,6147,1823,7.02,27.44
52356,6151,1822,-0.99,26.12
52357,6163,1867,7.07,25.16
52357,6165,1851,7.74,24.29
52357,6167,1836,3.76,23.27
52357,6169,1826,-1.79,22.19
52358,6171,1806,-11.31,21.65
52358,6173,1802,-18.64,21.5
52358,6175,1809,-21.16,21.48
52358,6177,1813,-21.36,21.48
52359,6180,1828,-16.8,21.24
52359,6182,1873,-0.15,20.19
52359,6184,1911,22.36,20.3
52359,6186,1923,40.8,21.32
52359,6188,1925,53.34,22.92
52359,6190,1903,54.64,24.51
52360,6192,1863,43.05,25.44
52360,6194,1816,20.88,25.21
52360,6196,1782,-4.23,24.16
52360,6198,1774,-23.22,24.11
52360,6200,1776,-34.86,24.65
52361,6202,1822,-28.28,24.83
52408,6204,1871,-8.61,24.02
52409,6208,1934,23.83,24.01
52409,6212,1910,38.43,24.73
52409,6214,1866,34.7,25.23
52409,6216,1828,20.34,24.99
52410,6218,1800,1.86,23.83
52410,6220,1782,-16.25,23.45
52410,6222,1790,-26.17,23.59
52410,6224,1820,-23.89,23.6
52410,6226,1840,-16.38,23.24
52411,6228,1876,-0.6,22.11
52411,6230,1906,18.86,21.95
52411,6232,1921,36.21,22.66
52411,6234,1913,45.2,23.79
52411,6236,1899,46.81,24.94
52412,6239,1870,39.07,25.64
52412,6241,1847,27.07,25.72
52412,6243,1835,15.71,25.21
52412,6245,1841,10.39,24.47
52412,6247,1844,8.32,23.67
52412,6249,1847,8.42,22.9
52457,6251,1857,11.96,22.36
52457,6257,1868,17.94,22.14
52458,6262,1839,13.33,21.7
52458,6264,1838,9.77,21.1
52458,6266,1840,7.65,20.43
52458,6268,1824,0.95,19.45
52459,6271,1816,-6.53,18.81
52459,6273,1836,-6.18,18.18
52459,6275,1854,-1.17,17.33
52459,6277,1881,9.69,16.94
52459,6279,1917,27.22,17.46
52460,6281,1926,41.2,18.65
52460,6283,1927,50.5,20.24
52460,6285,1925,55.94,22.02
52460,6287,1905,53.65,23.6
52461,6289,1862,39.56,24.4
52461,6291,1833,22.02,24.28
52461,6293,1820,7.25,23.43
52461,6295,1817,-2.49,22.38
52461,6297,1829,-4.35,21.48
52461,6300,1848,1.0,20.46
52462,6302,1861,9.09,19.89
52504,6304,1864,15.57,19.67
52507,6309,1885,25.94,19.99
52507,6311,1899,36.42,20.81
52508,6313,1921,49.03,22.22
52508,6315,1924,57.13,23.97
52508,6317,1908,56.41,25.59
52508,6319,1897,51.33,26.87
52509,6321,1890,44.76,27.77
52509,6323,1867,32.76,28.02
52509,6325,1848,18.72,27.55
52510,6327,1855,11.55,26.75
52510,6329,1858,8.21,25.83
52511,6331,1859,7.1,24.89
52511,6334,1861,7.95,24.04
52511,6336,1875,13.73,23.53
52512,6338,1903,26.95,23.7
52512,6340,1935,46.15,24.82
52512,6342,1953,64.84,26.82
52512,6344,1940,73.52,29.16
52512,6346,1932,76.63,31.53
52513,6348,1921,74.87,33.7
52513,6350,1902,67.3,35.38
52558,6354,1860,48.85,36.05
52559,6363,1845,31.22,35.81
52559,6365,1839,16.96,34.87
52559,6367,1837,6.29,33.44
52559,6369,1853,3.53,31.94
52559,6371,1860,3.48,30.52
52560,6374,1872,6.78,29.33
52560,6376,1895,15.68,28.65
52560,6378,1908,25.4,28.49
52560,6380,1889,26.09,28.37
52560,6382,1882,24.38,28.17
52560,6384,1870,19.7,27.75
52561,6386,1840,7.75,26.75
52561,6388,1832,-2.35,25.53
52561,6390,1834,-8.09,24.65
52561,6392,1824,-14.47,24.14
52561,6394,1828,-17.12,23.79
52561,6396,1844,-13.78,23.29
52561,6399,1855,-8.09,22.53
52562,6401,1852,-5.23,21.67
52562,6403,1841,-6.89,20.93
52606,6405,1818,-15.33,20.65
52608,6409,1792,-29.31,21.08
52609,6411,1830,-27.79,21.42
52609,6414,1874,-13.98,21.05
52610,6416,1903,3.57,20.17
52610,6418,1903,14.92,19.91
52610,6420,1879,14.94,19.66
52610,6422,1870,12.0,19.28
52611,6425,1864,8.25,18.73
52611,6427,1852,2.41,17.91
52611,6429,1841,-4.28,17.23
52611,6431,1853,-4.45,16.59
52612,6433,1870,1.36,15.83
52612,6435,1882,9.67,15.52
52612,6437,1905,22.82,15.88
52612,6439,1908,33.0,16.74
52612,6441,1897,36.74,17.74
52613,6443,1882,34.71,18.59
52613,6445,1881,32.81,19.3
52613,6447,1872,28.46,19.76
52613,6449,1863,22.36,19.89
52655,6451,1853,14.71,19.63
52656,6456,1823,0.01,18.65
52656,6460,1838,-5.9,18.01
52656,6463,1842,-9.1,17.57
52656,6465,1857,-7.12,17.04
52656,6467,1872,-1.59,16.27
52657,6469,1860,-1.72,15.54
52657,6471,1857,-2.88,14.91
52657,6473,1857,-3.67,14.35
52657,6475,1849,-6.49,13.96
52657,6477,1835,-12.34,13.87
52657,6480,1832,-16.79,14.02
52658,6482,1820,-22.92,14.47
52658,6484,1808,-30.13,15.25
52658,6486,1822,-30.29,16.0
52658,6488,1831,-27.26,16.56
52658,6490,1839,-22.54,16.86
52658,6492,1846,-17.18,16.88
52658,6494,1842,-14.88,16.78
52659,6496,1821,-19.9,16.93
52659,6498,1827,-21.84,17.18
52659,6500,1855,-15.14,17.08
52702,6502,1870,-6.54,16.55
52703,6507,1865,-2.68,15.86
52703,6510,1842,-7.37,15.43
52704,6512,1844,-10.18,15.17
52704,6514,1853,-9.43,14.88
52704,6516,1844,-11.49,14.71
52704,6518,1841,-13.49,14.65
52705,6520,1856,-9.9,14.41
52705,6522,1859,-6.05,14.0
52705,6525,1859,-2.92,13.44
52705,6527,1845,-4.49,12.99
52705,6529,1833,-8.69,12.78
52705,6531,1813,-17.12,13.0
52706,6533,1791,-29.09,13.8
52706,6535,1802,-33.65,14.79
52706,6537,1817,-32.14,15.66
52706,6539,1834,-26.14,16.18
52706,6541,1852,-17.05,16.23
52707,6543,1852,-11.46,15.99
52707,6545,1847,-9.87,15.68
52707,6547,1859,-5.89,15.19
52752,6549,1883,3.37,14.6
52752,6555,1896,13.0,14.52
52752,6557,1899,20.03,14.8
52752,6559,1876,17.73,14.94
52753,6563,1832,3.1,14.35
52753,6565,1820,-9.9,14.13
52753,6567,1803,-22.98,14.57
52753,6569,1808,-29.3,15.31
52753,6571,1822,-28.29,15.96
52754,6573,1838,-21.84,16.25
52754,6575,1859,-10.45,15.96
52754,6577,1889,6.64,15.5
52754,6579,1892,19.09,15.68
52754,6581,1883,24.44,16.11
52755,6583,1873,24.43,16.53
52755,6585,1861,20.06,16.71
52755,6587,1858,15.4,16.64
52755,6589,1874,16.29,16.62
52755,6592,1903,24.92,17.04
52756,6594,1912,32.85,17.83
52756,6596,1924,41.35,19.0
52797,6598,1936,50.41,20.57
52798,6604,1865,35.16,21.3
52798,6606,1838,17.01,21.09
52798,6608,1823,0.88,20.08
52798,6610,1825,-8.54,19.5
52798,6612,1846,-7.61,18.91
52799,6614,1872,1.74,18.05
52799,6616,1894,15.34,17.91
52799,6618,1919,32.37,18.64
52799,6620,1917,43.24,19.87
52799,6622,1904,46.31,21.19
52800,6624,1893,44.47,22.35
52800,6626,1883,39.49,23.21
52800,6629,1843,23.35,23.22
52800,6631,1824,6.03,22.36
52800,6633,1822,-6.83,21.58
52800,6635,1804,-21.32,21.57
52800,6637,1828,-24.14,21.7
52801,6639,1878,-11.18,21.17
52801,6641,1903,4.98,20.36
52801,6643,1917,19.97,20.34
52805,6645,1915,29.4,20.79
52805,6649,1882,25.84,21.05
52853,6651,1863,17.89,20.89
52853,6657,1842,6.58,20.17
52854,6659,1863,5.78,19.45
52854,6661,1881,11.27,19.05
52854,6665,1891,18.53,19.02
52854,6667,1887,22.67,19.2
52855,6669,1853,15.53,19.02
52855,6671,1841,7.24,18.43
52855,6673,1843,2.28,17.62
52855,6675,1841,-1.79,16.83
52855,6677,1837,-6.0,16.29
52855,6679,1830,-11.35,16.04
52856,6681,1824,-17.27,16.1
52856,6684,1807,-26.94,16.64
52856,6686,1794,-37.91,17.71
52856,6688,1798,-44.59,19.05
52856,6690,1793,-50.97,20.65
52856,6692,1801,-53.13,22.27
52856,6694,1837,-43.92,23.35
52857,6696,1882,-24.24,23.4
52857,6698,1918,-0.16,22.24
52899,6700,1946,24.5,22.35
52900,6705,1897,26.5,22.56
52900,6708,1826,6.78,21.77
52900,6710,1773,-21.89,21.77
52900,6712,1737,-51.14,23.24
52900,6714,1733,-70.92,25.63
52901,6716,1740,-80.95,28.39
52901,6718,1763,-79.73,30.96
52901,6720,1814,-62.88,32.56
52901,6722,1877,-32.35,32.55
52901,6725,1907,-3.1,31.07
52901,6727,1912,17.27,30.38
52901,6729,1904,27.38,30.23
52902,6731,1882,26.26,30.03
52902,6733,1858,17.06,29.39
52902,6735,1855,9.03,28.37
52902,6737,1837,-2.32,27.07
52902,6739,1827,-13.06,26.36
52902,6741,1819,-22.34,26.16
52902,6743,1824,-26.37,26.17
52903,6745,1839,-23.58,26.04
52948,6747,1856,-15.46,25.51
52948,6752,1891,1.63,24.32
52949,6755,1866,6.59,23.43
52949,6757,1842,3.45,22.43
52949,6759,1809,-8.06,21.72
52949,6761,1797,-19.11,21.59
52949,6763,1808,-23.15,21.66
52950,6767,1810,-25.43,21.85
52950,6769,1820,-24.41,21.98
52950,6771,1837,-19.32,21.85
52950,6773,1846,-14.1,21.46
52950,6775,1865,-5.92,20.68
52950,6777,1888,5.44,19.92
52950,6779,1884,10.91,19.47
52951,6781,1868,9.02,18.95
52951,6784,1864,6.09,18.3
52951,6786,1850,-0.12,17.4
52951,6788,1810,-15.92,17.32
52951,6790,1798,-29.37,17.92
52951,6792,1776,-43.87,19.22
52952,6794,1746,-61.27,21.32
52952,6796,1742,-72.74,23.89
52998,6801,1799,-62.02,25.8
52998,6804,1877,-30.35,26.03
52999,6806,1917,3.48,24.9
52999,6808,1922,27.6,25.04
52999,6810,1892,34.15,25.49
52999,6812,1865,29.42,25.69
52999,6814,1824,12.79,25.04
53000,6816,1791,-9.37,24.26
53000,6818,1776,-29.63,24.53
53000,6820,1794,-38.41,25.22
53000,6822,1828,-34.4,25.68
53000,6824,1860,-22.16,25.51
53000,6826,1887,-5.77,24.52
53000,6828,1897,8.42,23.71
53001,6831,1895,17.63,23.41
53001,6833,1887,21.81,23.33
53001,6835,1863,17.94,23.06
53001,6837,1842,9.71,22.39
53001,6839,1825,-0.15,21.28
53001,6841,1825,-5.94,20.51
53001,6843,1820,-10.53,20.01
53049,6845,1837,-7.9,19.41
53050,6850,1845,-3.34,18.6
53051,6852,1855,2.77,17.81
53051,6855,1853,5.98,17.22
53052,6857,1816,-3.55,16.54
53052,6859,1813,-11.66,16.29
53053,6861,1826,-14.08,16.18
53059,6863,1815,-19.87,16.37
53060,6865,1830,-20.1,16.55
53061,6867,1859,-12.24,16.34
53061,6870,1878,-1.81,15.61
53062,6872,1884,6.63,15.16
53062,6875,1889,13.65,15.09
53062,6877,1868,12.18,14.94
53062,6879,1829,-0.12,14.2
53062,6881,1811,-13.08,14.14
53063,6883,1789,-27.4,14.81
53063,6885,1764,-43.35,16.23
53063,6887,1760,-54.05,18.12
53063,6889,1776,-55.31,19.98
53063,6891,1798,-48.68,21.42
53093,6893,1818,-37.76,22.24
53093,6899,1837,-24.73,22.36
53093,6901,1831,-18.26,22.16
53093,6903,1840,-12.11,21.65
53094,6905,1836,-10.31,21.09
53094,6907,1839,-9.45,20.5
53094,6910,1851,-6.47,19.8
53094,6912,1841,-8.49,19.24
53094,6914,1830,-13.89,18.97
53094,6916,1813,-22.98,19.17
53095,6918,1782,-38.31,20.13
53095,6920,1743,-59.78,22.11
53095,6922,1739,-74.44,24.73
53095,6924,1757,-77.6,27.37
53095,6926,1774,-73.19,29.66
53096,6928,1794,-62.86,31.32
53096,6930,1826,-45.19,32.01
53096,6932,1835,-29.85,31.91
53096,6934,1863,-10.81,30.85
53096,6936,1887,9.12,29.76
53096,6939,1888,22.37,29.39
53100,6941,1869,24.83,29.17
53100,6945,1806,6.7,28.04
53148,6948,1787,-12.02,27.24
53149,6952,1791,-24.0,27.08
53151,6954,1771,-38.4,27.65
53151,6956,1778,-46.12,28.57
53151,6958,1786,-48.82,29.58
53151,6960,1787,-50.09,30.61
53151,6963,1801,-46.4,31.4
53152,6965,1827,-35.72,31.61
53152,6967,1832,-26.63,31.36
53152,6969,1825,-22.26,30.91
53152,6972,1815,-22.01,30.46
53152,6974,1804,-24.84,30.18
53153,6976,1802,-27.04,30.03
53153,6978,1805,-27.34,29.89
53153,6980,1780,-34.81,30.14
53154,6983,1764,-44.46,30.85
53155,6985,1750,-55.02,32.06
53155,6987,1745,-63.52,33.63
53156,6989,1737,-71.59,35.53
53156,6991,1748,-73.76,37.44
53157,6993,1776,-66.93,38.92
53157,6995,1785,-59.86,39.96
53157,7000,1785,-55.43,40.74
53201,7002,1760,-60.32,41.72
53201,7008,1812,-48.32,42.05
53201,7010,1827,-35.95,41.74
53201,7012,1833,-25.94,40.95
53202,7014,1836,-18.31,39.82
53202,7016,1831,-14.5,38.55
53202,7018,1822,-14.27,37.34
53202,7020,1810,-17.13,36.33
53202,7022,1791,-23.99,35.71
53202,7024,1779,-31.31,35.49
53202,7026,1786,-33.17,35.38
53203,7028,1794,-31.1,35.16
53203,7030,1783,-32.27,35.02
53203,7032,1782,-32.85,34.91
53203,7035,1797,-28.51,34.59
53203,7037,1795,-26.27,34.17
53203,7039,1798,-24.22,33.68
53203,7041,1826,-15.06,32.74
53204,7043,1836,-6.68,31.44
53204,7045,1842,-0.16,29.88
53204,7047,1847,4.82,28.62
53261,7049,1839,4.97,27.44
53261,7054,1773,-15.3,26.83
53261,7056,1744,-37.88,27.39
53261,7059,1740,-54.03,28.72
53261,7061,1774,-54.07,29.99
53262,7063,1814,-41.21,30.55
53262,7065,1841,-23.52,30.2
53262,7067,1852,-7.46,29.06
53262,7069,1846,2.24,27.72
53262,7071,1820,1.5,26.41
53262,7075,1773,-12.7,25.72
53262,7077,1753,-27.94,25.83
53263,7079,1731,-44.54,26.77
53263,7081,1736,-54.04,28.13
53263,7083,1759,-53.51,29.4
53263,7085,1774,-48.85,30.37
53263,7087,1798,-38.94,30.8
53263,7089,1832,-22.74,30.4
53264,7091,1846,-8.45,29.3
53264,7093,1840,-1.53,27.91
53264,7095,1828,-1.3,26.58
53307,7097,1818,-4.76,25.49
53307,7102,1805,-11.25,24.78
53307,7115,1764,-27.8,24.93
53308,7117,1762,-39.03,25.63
53308,7119,1756,-47.49,26.73
53308,7121,1773,-46.97,27.74
53308,7123,1813,-33.4,28.02
53308,7125,1840,-15.06,27.37
53308,7127,1836,-3.07,26.16
53308,7129,1810,-2.27,24.97
53308,7132,1796,-5.67,24.0
53309,7134,1799,-7.03,23.15
53309,7136,1811,-4.53,22.22
53309,7138,1841,5.76,21.4
53309,7140,1846,13.59,21.01
53309,7142,1832,13.88,20.65
53309,7144,1820,9.64,20.1
53309,7146,1803,0.94,19.14
53309,7148,1783,-11.48,18.76
53310,7150,1787,-18.96,18.77
53310,7152,1795,-21.64,18.91
53359,7154,1790,-24.76,19.21
53359,7159,1804,-22.31,19.36
53359,7162,1829,-12.67,19.03
53359,7164,1833,-4.43,18.3
53359,7166,1825,-0.77,17.42
53359,7168,1794,-7.11,16.9
53359,7170,1778,-15.72,16.84
53360,7172,1786,-18.66,16.94
53360,7174,1781,-21.76,17.18
53360,7177,1802,-17.32,17.18
53360,7179,1839,-3.17,16.48
53360,7181,1856,11.26,16.22
53360,7184,1856,20.54,16.44
53360,7186,1853,25.28,16.88
53360,7188,1844,25.11,17.29
53361,7190,1821,17.49,17.3
53361,7192,1781,-0.1,16.44
53361,7194,1750,-21.47,16.69
53361,7196,1709,-48.08,18.26
53361,7198,1713,-64.45,20.57
53361,7200,1748,-64.41,22.76
53361,7202,1792,-50.58,24.15
53405,7204,1841,-26.09,24.25
53405,7210,1881,2.63,23.17
53405,7212,1892,25.23,23.27
53406,7214,1895,41.09,24.16
53406,7216,1875,45.41,25.23
53406,7218,1853,41.38,26.03
53406,7221,1847,36.68,26.57
53406,7223,1844,32.6,26.87
53406,7225,1840,28.82,26.97
53407,7227,1841,26.87,26.96
53407,7229,1840,25.63,26.89
53407,7231,1822,19.79,26.54
53407,7233,1811,12.93,25.86
53407,7235,1818,10.74,25.1
53407,7237,1821,10.38,24.37
53407,7239,1835,14.4,23.87
53408,7241,1862,25.06,23.93
53408,7243,1874,35.49,24.51
53408,7245,1871,41.05,25.33
53408,7248,1862,41.4,26.14
53408,7250,1848,36.74,26.67
53412,7252,1826,26.37,26.65
53461,7256,1822,17.73,26.21
53461,7265,1838,16.46,25.72
53462,7267,1833,14.04,25.13
53462,7269,1861,20.89,24.92
53462,7271,1873,29.28,25.14
53462,7273,1879,36.96,25.73
53462,7275,1882,43.28,26.61
53462,7278,1883,48.1,27.68
53463,7280,1872,48.3,28.71
53463,7283,1872,48.69,29.71
53463,7285,1866,47.37,30.6
53463,7287,1843,39.75,31.05
53463,7289,1828,30.22,31.01
53463,7291,1817,20.55,30.49
53463,7293,1818,14.31,29.68
53464,7295,1828,12.95,28.84
53464,7297,1847,17.44,28.27
53464,7299,1864,25.1,28.11
53464,7301,1882,35.04,28.46
53464,7303,1896,45.19,29.3
53464,7305,1906,54.25,30.55
53508,7307,1901,58.11,31.92
53508,7312,1886,55.62,33.11
53509,7315,1845,41.27,33.52
53509,7317,1822,24.65,33.07
53509,7319,1801,7.46,31.79
53509,7321,1785,-8.33,30.62
53509,7323,1801,-13.38,29.76
53509,7325,1848,-1.85,28.36
53509,7327,1880,16.22,27.76
53510,7330,1904,36.0,28.17
53510,7332,1923,55.08,29.51
53510,7334,1916,65.58,31.32
53510,7336,1892,64.94,33.0
53510,7338,1868,56.68,34.18
53510,7340,1861,48.4,34.89
53510,7342,1850,38.98,35.1
53511,7344,1845,30.69,34.88
53511,7346,1863,30.18,34.64
53511,7348,1857,27.8,34.3
53511,7350,1863,27.83,33.98
53511,7352,1867,28.96,33.72
53560,7354,1860,27.59,33.42
53560,7359,1847,22.8,32.89
53560,7362,1840,17.57,32.12
53560,7364,1836,13.01,31.17
53561,7366,1840,11.32,30.17
53561,7368,1835,8.86,29.11
53561,7370,1833,6.72,27.99
53561,7372,1851,10.74,27.13
53561,7375,1857,15.2,26.53
53561,7377,1855,17.45,26.08
53562,7379,1855,18.69,25.71
53562,7382,1852,18.31,25.34
53562,7384,1851,17.41,24.94
53562,7386,1862,19.78,24.68
53562,7388,1871,23.79,24.64
53562,7390,1858,22.35,24.52
53562,7393,1856,20.6,24.33
53563,7395,1860,20.56,24.14
53563,7397,1857,19.68,23.92
53563,7399,1860,20.12,23.73
53563,7401,1859,20.31,23.56
53563,7403,1841,15.27,23.14
53606,7405,1812,3.44,22.16
53606,7410,1821,-1.54,21.13
53606,7413,1865,8.58,20.5
53607,7415,1905,27.57,20.85
53607,7417,1914,43.0,21.96
53607,7419,1899,48.61,23.29
53607,7421,1876,45.06,24.38
53607,7423,1840,31.44,24.73
53607,7426,1809,12.61,24.13
53608,7428,1808,-0.57,22.95
53608,7430,1817,-6.81,22.14
53608,7432,1819,-10.41,21.56
53608,7434,1824,-11.3,21.04
53608,7436,1833,-9.21,20.45
53608,7438,1831,-8.43,19.85
53608,7440,1840,-5.28,19.12
53609,7442,1872,6.34,18.48
53609,7444,1892,20.01,18.56
53609,7446,1883,26.31,18.95
53609,7448,1864,24.63,19.23
53609,7450,1844,17.36,19.14
53611,7452,1839,10.96,18.73
53661,7457,1871,16.4,18.61
53661,7465,1836,9.8,18.17
53661,7467,1847,8.93,17.71
53661,7469,1869,15.24,17.59
53661,7471,1890,26.07,18.01
53662,7473,1882,31.11,18.67
53662,7475,1884,35.13,19.49
53662,7478,1872,34.19,20.22
53662,7480,1845,25.33,20.48
53662,7482,1823,12.61,20.09
53662,7485,1822,3.63,19.26
53662,7487,1839,2.58,18.43
53663,7489,1860,8.04,17.91
53663,7491,1874,15.7,17.8
53663,7493,1871,19.64,17.89
53663,7495,1842,13.22,17.66
53663,7497,1821,2.25,16.89
53663,7499,1804,-10.46,16.57
53663,7501,1785,-24.81,16.98
53664,7504,1789,-33.21,17.79
53664,7506,1815,-30.91,18.45
53709,7508,1838,-22.26,18.64
53709,7512,1895,0.79,17.74
53709,7516,1876,10.63,17.39
53709,7518,1855,10.84,17.06
53710,7520,1842,6.99,16.56
53710,7522,1821,-1.93,15.83
53710,7524,1808,-11.75,15.62
53710,7526,1810,-17.56,15.72
53710,7528,1812,-20.61,15.96
53710,7530,1813,-22.09,16.27
53710,7532,1823,-19.85,16.45
53710,7535,1838,-13.69,16.31
53710,7537,1851,-5.59,15.78
53711,7539,1871,5.77,15.28
53711,7541,1876,14.72,15.25
53711,7543,1871,18.95,15.43
53711,7545,1864,19.38,15.63
53711,7547,1855,16.7,15.68
53711,7549,1840,10.23,15.41
53712,7551,1824,1.05,14.69
53712,7553,1821,-5.93,14.25
53763,7555,1812,-13.08,14.2
53764,7560,1817,-16.07,14.29
53764,7567,1847,-8.74,14.01
53764,7569,1846,-3.81,13.5
53764,7571,1836,-3.33,12.99
53764,7573,1829,-5.04,12.6
53765,7575,1808,-12.5,12.59
53765,7577,1785,-24.48,13.19
53765,7579,1766,-38.33,14.44
53765,7582,1746,-53.72,16.41
53765,7584,1755,-61.45,18.66
53765,7587,1798,-53.82,20.42
53765,7589,1833,-38.33,21.31
53766,7591,1835,-27.6,21.63
53766,7593,1828,-22.88,21.69
53766,7595,1829,-19.8,21.6
53766,7597,1823,-19.83,21.51
53766,7599,1806,-25.08,21.69
53766,7601,1786,-34.55,22.33
53766,7603,1766,-46.61,23.54
53766,7605,1759,-56.3,25.18
53767,7607,1778,-56.41,26.74
53810,7610,1813,-45.21,27.67
53819,7615,1869,-20.17,27.29
53820,7618,1869,-2.82,26.07
53820,7620,1852,3.98,24.96
53820,7622,1833,2.92,23.86
53820,7624,1817,-2.63,22.8
53821,7626,1796,-12.73,22.3
53822,7628,1800,-18.39,22.1
53826,7630,1823,-15.36,21.76
53827,7632,1825,-12.81,21.32
53827,7634,1831,-9.46,20.72
53828,7636,1839,-5.01,19.94
53828,7638,1840,-1.95,19.04
53829,7640,1831,-2.81,18.23
53829,7642,1827,-4.75,17.55
53829,7645,1824,-7.03,17.03
53829,7647,1809,-13.02,16.83
53830,7649,1806,-17.81,16.88
53830,7651,1805,-21.08,17.09
53830,7653,1800,-24.46,17.46
53830,7655,1792,-28.79,18.02
53831,7657,1777,-35.86,18.91
53866,7661,1771,-42.11,20.07
53867,7669,1843,-24.46,20.29
53867,7671,1827,-17.25,20.14
53867,7673,1796,-21.79,20.22
53867,7675,1787,-27.74,20.6
53867,7677,1803,-27.16,20.93
53867,7679,1818,-22.48,21.01
53868,7682,1829,-16.27,20.77
53868,7684,1836,-10.24,20.24
53868,7686,1830,-8.2,19.64
53868,7689,1785,-20.48,19.68
53868,7691,1745,-40.75,20.74
53868,7693,1715,-63.17,22.86
53868,7695,1706,-80.5,25.74
53869,7697,1746,-79.56,28.43
53869,7699,1796,-63.29,30.17
53869,7702,1836,-39.88,30.66
53869,7704,1866,-14.93,29.87
53869,7706,1878,5.4,28.65
53869,7708,1870,16.4,28.04
53869,7710,1848,16.84,27.48
53912,7712,1824,9.62,26.58
53912,7717,1747,-18.5,26.18
53912,7719,1748,-37.05,26.72
53912,7722,1788,-37.17,27.24
53913,7724,1819,-27.45,27.26
53913,7726,1845,-12.67,26.53
53913,7728,1849,-1.2,25.26
53913,7730,1836,2.78,24.14
53913,7732,1829,3.42,23.1
53913,7734,1839,6.86,22.29
53913,7736,1832,7.04,21.53
53913,7738,1824,4.7,20.68
53914,7740,1816,0.64,19.68
53914,7742,1804,-5.75,18.99
53914,7744,1788,-14.89,18.78
53914,7747,1776,-24.65,19.07
53914,7749,1760,-35.98,19.92
53914,7751,1751,-46.25,21.24
53915,7753,1768,-47.98,22.57
53915,7755,1797,-40.39,23.46
53915,7757,1826,-26.62,23.62
53962,7759,1857,-8.21,22.85
53962,7763,1877,9.88,22.2
53963,7768,1818,3.99,21.29
53963,7770,1777,-12.6,20.86
53963,7772,1755,-30.46,21.34
53963,7774,1756,-42.0,22.37
53963,7776,1780,-42.17,23.36
53963,7778,1808,-33.37,23.86
53963,7780,1838,-17.95,23.57
53964,7783,1858,-1.18,22.45
53964,7785,1865,12.45,21.95
53964,7787,1849,16.92,21.7
53964,7789,1840,17.25,21.47
53964,7792,1817,10.58,20.93
53964,7794,1818,6.41,20.2
53964,7796,1821,4.56,19.42
53964,7798,1816,1.88,18.54
53965,7800,1811,-1.39,17.69
53965,7802,1823,0.02,16.8
53965,7804,1828,2.44,16.08
53965,7807,1855,12.07,15.88
53965,7809,1872,23.49,16.26
54012,7813,1845,22.81,16.59
54012,7817,1770,-0.42,15.78
54013,7819,1709,-34.54,16.72
54013,7821,1678,-66.74,19.22
54013,7823,1721,-75.21,22.02
54013,7825,1795,-58.33,23.84
54013,7827,1850,-30.22,24.16
54014,7829,1870,-5.34,23.21
54014,7831,1885,15.57,22.83
54014,7833,1895,32.16,23.3
54014,7835,1904,45.5,24.41
54014,7837,1916,57.62,26.07
54014,7840,1902,61.27,27.83
54014,7842,1870,54.04,29.14
54014,7844,1845,41.87,29.78
54015,7846,1832,30.3,29.8
54015,7848,1811,16.99,29.16
54015,7850,1805,7.15,28.06
54015,7852,1793,-2.12,26.77
54015,7854,1794,-7.23,25.79
54015,7856,1799,-8.56,24.93
54062,7858,1821,-2.57,23.81
54062,7863,1838,6.45,22.94
54062,7866,1840,12.58,22.42
54062,7868,1837,14.92,22.05
54063,7870,1832,13.85,21.64
54063,7872,1840,14.29,21.27
54063,7874,1845,14.89,20.95
54063,7876,1850,15.74,20.69
54063,7878,1852,16.08,20.46
54063,7880,1844,13.4,20.11
54063,7882,1830,7.27,19.47
54064,7884,1810,-2.6,18.62
54064,7887,1800,-11.59,18.27
54064,7889,1778,-23.26,18.52
54064,7891,1752,-37.73,19.48
54064,7894,1743,-48.87,20.95
54064,7896,1735,-57.52,22.78
54064,7898,1760,-54.78,24.38
54064,7900,1802,-39.62,25.14
54065,7902,1855,-13.28,24.55
54065,7904,1895,16.13,24.13
54068,7907,1901,36.85,24.76
54115,7911,1838,30.63,25.06
54132,7921,1856,30.44,25.33
54132,7923,1870,33.25,25.72
54132,7925,1863,31.98,26.03
54132,7927,1842,24.06,25.94
54132,7929,1812,9.36,25.11
54132,7931,1782,-9.44,24.32
54133,7933,1782,-21.52,24.18
54133,7935,1784,-28.09,24.38
54133,7937,1787,-30.44,24.68
54133,7940,1791,-29.58,24.93
54133,7942,1813,-21.26,24.74
54133,7944,1850,-3.64,23.69
54133,7946,1883,18.68,23.44
54134,7948,1903,39.81,24.26
54134,7950,1904,54.02,25.74
54134,7952,1885,57.21,27.32
54134,7954,1871,54.28,28.66
54134,7956,1847,44.19,29.44
54134,7958,1824,29.66,29.45
54134,7960,1801,12.3,28.59
54165,7962,1790,-3.12,27.32
54187,7966,1809,-7.99,26.35
54190,7969,1801,-13.65,25.72
54190,7971,1808,-15.23,25.19
54191,7974,1816,-13.65,24.62
54191,7976,1837,-5.99,23.69
54191,7978,1863,7.25,22.86
54191,7980,1863,16.38,22.54
54192,7982,1844,16.97,22.26
54192,7984,1819,9.96,21.65
54192,7986,1797,-1.24,20.63
54192,7988,1789,-11.02,20.15
54193,7990,1786,-18.33,20.05
54193,7992,1782,-24.29,20.27
54193,7996,1789,-26.11,20.56
54193,7998,1799,-24.35,20.75
54194,8000,1804,-21.81,20.8
54194,8002,1800,-21.56,20.84
54194,8004,1786,-25.95,21.1
54194,8006,1767,-34.99,21.79
54194,8008,1755,-45.0,22.95
54214,8010,1755,-51.96,24.4
54215,8015,1739,-61.56,26.26
54215,8020,1777,-56.61,27.78
54216,8022,1810,-43.28,28.55
54216,8024,1825,-29.7,28.61
54216,8027,1835,-17.47,28.05
54216,8029,1821,-13.32,27.32
54217,8031,1798,-17.26,26.81
54217,8033,1777,-25.91,26.77
54217,8035,1777,-31.29,26.99
54217,8037,1807,-25.34,26.91
54217,8039,1840,-10.85,26.11
54218,8041,1864,6.57,25.13
54218,8043,1870,20.4,24.89
54218,8045,1862,27.42,25.02
54218,8047,1835,24.03,24.97
54218,8049,1821,17.48,24.6
54218,8051,1817,11.79,23.96
54218,8053,1808,5.19,23.02
54218,8056,1794,-3.52,22.04
54219,8058,1765,-18.15,21.85
54264,8060,1774,-25.36,22.02
54264,8064,1860,-4.47,21.15
54264,8066,1905,22.95,21.24
54265,8070,1925,47.04,22.53
54265,8072,1907,57.33,24.27
54265,8074,1876,54.39,25.77
54265,8076,1843,42.11,26.59
54265,8078,1816,25.59,26.54
54265,8080,1803,10.74,25.75
54265,8082,1792,-2.12,24.57
54266,8084,1784,-12.57,23.97
54266,8087,1787,-18.02,23.67
54266,8089,1801,-16.84,23.33
54266,8091,1807,-13.76,22.85
54266,8093,1821,-7.22,22.07
54266,8095,1838,2.27,21.08
54266,8098,1841,9.26,20.49
54266,8100,1837,12.22,20.08
54267,8102,1826,10.23,19.58
54267,8105,1815,4.84,18.85
54267,8107,1812,-0.38,17.92
54267,8109,1804,-6.85,17.37
54269,8111,1783,-17.9,17.4
54317,8116,1734,-40.21,18.54
54317,8123,1796,-36.53,19.44
54317,8125,1851,-17.22,19.32
54318,8127,1883,5.73,18.64
54318,8129,1886,22.38,18.83
54318,8131,1871,29.33,19.36
54318,8133,1854,29.17,19.85
54318,8135,1836,23.98,20.05
54319,8137,1811,13.4,19.72
54319,8139,1800,3.45,18.91
54319,8141,1807,-0.65,17.99
54319,8143,1825,2.42,17.22
54319,8145,1846,11.06,16.91
54319,8148,1867,23.19,17.22
54319,8150,1872,32.62,17.99
54319,8152,1856,33.68,18.78
54319,8154,1838,28.36,19.26
54320,8156,1807,14.82,19.03
54320,8158,1792,0.6,18.11
54320,8160,1796,-8.21,17.62
54320,8162,1801,-12.93,17.38
54364,8164,1814,-12.38,17.13
54365,8168,1834,-6.08,16.58
54365,8171,1835,-1.55,15.83
54366,8173,1827,-0.86,15.08
54366,8175,1816,-3.57,14.51
54366,8177,1812,-6.39,14.1
54366,8179,1808,-9.18,13.85
54366,8182,1784,-17.9,14.06
54366,8184,1751,-33.28,15.02
54367,8186,1711,-55.2,17.03
54367,8188,1699,-73.12,19.83
54367,8190,1724,-77.27,22.7
54367,8192,1759,-69.28,25.03
54367,8194,1807,-49.48,26.25
54367,8196,1852,-22.95,26.09
54367,8198,1883,3.58,24.96
54367,8201,1896,24.47,24.94
54368,8203,1886,34.59,25.42
54368,8205,1871,36.05,25.95
54368,8207,1862,33.77,26.34
54368,8209,1848,27.86,26.42
54370,8212,1836,20.53,26.13
54418,8216,1797,4.55,25.05
54419,8223,1796,-5.52,24.07
54419,8225,1791,-12.55,23.49
54419,8227,1800,-13.26,22.98
54419,8229,1806,-10.74,22.37
54419,8231,1818,-4.51,21.48
54419,8234,1843,7.76,20.79
54419,8236,1867,23.32,20.92
54419,8238,1871,34.62,21.6
54420,8240,1864,39.32,22.49
54420,8242,1847,36.28,23.18
54420,8244,1825,26.4,23.34
54420,8246,1804,12.24,22.78
54420,8248,1783,-4.62,21.88
54420,8250,1765,-22.14,21.89
54420,8252,1742,-41.27,22.86
54420,8254,1763,-47.94,24.11
54420,8256,1770,-50.11,25.41
54421,8258,1785,-46.65,26.47
54421,8261,1784,-44.07,27.35
54421,8263,1787,-40.81,28.03
54490,8265,1832,-24.48,27.85
54490,8269,1898,6.92,26.8
54491,8272,1912,32.67,27.1
54491,8274,1880,40.6,27.77
54491,8276,1840,33.99,28.08
54491,8278,1806,19.41,27.65
54491,8280,1796,6.75,26.6
54491,8282,1803,0.55,25.3
54492,8284,1817,0.8,24.08
54492,8287,1821,2.3,22.99
54492,8289,1825,4.5,22.06
54492,8291,1833,8.22,21.37
54492,8293,1847,14.62,21.03
54492,8295,1857,21.51,21.06
54492,8297,1856,25.34,21.27
54492,8299,1847,24.69,21.44
54493,8301,1840,21.69,21.45
54493,8304,1856,24.12,21.59
54493,8306,1855,25.27,21.77
54493,8308,1851,24.79,21.92
54493,8310,1840,21.25,21.89
54541,8313,1835,17.62,21.68
54542,8317,1825,12.54,21.22
54542,8347,1866,21.88,21.25
54542,8349,1858,26.22,21.5
54542,8351,1859,29.8,21.92
54543,8353,1863,33.65,22.5
54543,8355,1869,38.16,23.29
54543,8357,1852,36.08,23.92
54543,8359,1836,29.71,24.21
54543,8362,1826,22.19,24.11
54543,8364,1832,18.64,23.84
54543,8366,1860,24.31,23.86
54544,8368,1868,30.11,24.17
54544,8370,1875,35.62,24.75
54544,8372,1868,36.7,25.34
54544,8374,1855,33.03,25.73
54544,8376,1856,30.48,25.97
54544,8378,1862,30.34,26.19
54544,8380,1864,30.77,26.41
54544,8382,1855,28.43,26.52
54544,8384,1852,26.13,26.5
54545,8386,1869,29.98,26.67
54591,8388,1889,38.92,27.28
54591,8393,1912,52.15,28.53
54591,8396,1917,62.79,30.24
54591,8398,1906,66.75,32.06
54592,8400,1891,64.93,33.71
54592,8402,1883,61.25,35.09
54592,8406,1883,58.7,36.27
54592,8408,1874,54.15,37.16
54592,8410,1867,48.81,37.74
54592,8412,1865,44.38,38.07
54592,8414,1868,42.01,38.27
54593,8416,1881,43.98,38.56
54593,8418,1899,50.31,39.14
54593,8420,1902,55.0,39.94
54593,8422,1894,55.25,40.7
54593,8424,1903,57.63,41.55
54593,8426,1904,59.11,42.43
54593,8428,1910,61.58,43.38
54593,8430,1923,66.93,44.56
54594,8432,1931,72.83,45.98
54594,8435,1923,74.4,47.4
54596,8437,1920,74.63,48.76
54645,8441,1870,59.96,49.32
54645,8449,1873,51.26,49.42
54646,8451,1871,45.17,49.2
54646,8453,1871,41.43,48.81
54646,8455,1891,45.17,48.63
54646,8457,1903,51.37,48.77
54646,8460,1892,52.1,48.94
54646,8462,1880,48.62,48.92
54646,8464,1886,47.53,48.85
54646,8466,1907,52.46,49.03
54647,8468,1920,58.94,49.53
54647,8470,1926,64.31,50.27
54647,8472,1925,66.82,51.09
54647,8474,1913,64.22,51.75
54647,8476,1898,57.43,52.03
54647,8478,1873,45.07,51.68
54647,8480,1876,37.63,50.98
54647,8482,1905,41.56,50.51
54647,8484,1922,49.7,50.47
54648,8486,1928,57.42,50.82
54648,8489,1928,63.01,51.43
54693,8491,1916,63.51,52.03
54693,8496,1882,53.91,52.13
54694,8498,1872,44.65,51.75
54694,8500,1900,46.94,51.51
54694,8503,1951,63.78,52.12
54694,8505,1980,83.57,53.7
54694,8508,1976,95.14,55.77
54694,8510,1969,100.06,57.98
54695,8512,1940,93.81,59.78
54695,8514,1914,80.99,60.84
54695,8516,1876,60.29,60.81
54695,8518,1847,37.24,59.63
54695,8521,1827,15.56,57.43
54695,8523,1825,0.44,54.58
54695,8525,1836,-6.21,52.16
54696,8527,1840,-9.24,50.01
54696,8529,1851,-7.77,47.9
54696,8531,1892,5.6,45.79
54696,8533,1942,29.51,44.97
54696,8535,1995,61.2,45.78
54696,8537,2019,89.17,47.95
54699,8539,2027,109.69,51.04
54746,8544,1960,102.65,53.62
54747,8552,1840,61.32,54.01
54747,8554,1849,36.04,53.11
54747,8556,1873,26.55,51.78
54747,8558,1905,30.36,50.71
54747,8560,1946,45.88,50.47
54748,8562,1983,67.98,51.34
54748,8564,1995,86.77,53.11
54748,8566,1996,99.76,55.45
54748,8568,1981,103.84,57.87
54748,8570,1957,99.06,59.93
54748,8572,1927,86.44,61.25
54748,8574,1905,70.96,61.74
54749,8576,1902,59.28,61.61
54749,8579,1906,52.29,61.15
54749,8581,1897,44.55,60.32
54749,8583,1875,32.37,58.92
54749,8585,1859,18.98,56.92
54749,8587,1854,8.09,54.48
54749,8589,1851,-0.5,51.78
54749,8591,1839,-10.23,49.7
54756,8593,1835,-18.31,48.14
54757,8597,1930,4.45,45.95
54757,8599,1993,38.33,45.57
54802,8601,2039,74.45,47.01
54803,8606,2077,109.56,50.14
54803,8609,2010,112.46,53.26
54803,8612,1952,96.56,55.42
54803,8614,1920,76.21,56.46
54803,8616,1905,58.45,56.56
54804,8618,1902,46.44,56.05
54804,8620,1903,39.72,55.24
54804,8622,1908,37.8,54.37
54804,8624,1906,36.89,53.49
54804,8626,1923,42.07,52.92
54804,8628,1942,51.57,52.85
54804,8630,1952,60.82,53.25
54805,8632,1942,63.45,53.76
54805,8634,1915,56.13,53.88
54805,8636,1892,43.08,53.34
54805,8638,1869,26.08,51.98
54805,8641,1855,9.18,49.84
54805,8643,1857,-2.7,47.48
54805,8645,1857,-11.58,45.69
54805,8647,1860,-17.32,44.27
54808,8649,1857,-22.48,43.18
54808,8653,1840,-31.18,42.58
54861,8656,1838,-37.48,42.32
54862,8661,1930,-13.68,40.89
54862,8663,1968,14.32,39.56
54862,8666,1982,37.9,39.48
54862,8668,1973,51.56,40.08
54862,8670,1943,52.23,40.69
54862,8672,1907,42.38,40.78
54863,8674,1877,27.35,40.1
54863,8676,1853,10.68,38.63
54863,8678,1845,-2.3,36.82
54863,8680,1841,-11.7,35.56
54863,8682,1848,-15.6,34.56
54863,8684,1862,-14.0,33.53
54863,8686,1891,-4.55,32.08
54864,8688,1920,9.82,30.97
54864,8690,1928,20.88,30.47
54864,8692,1897,17.78,29.83
54864,8695,1845,-1.19,28.4
54864,8697,1804,-27.33,28.35
54864,8699,1776,-54.03,29.63
54864,8701,1782,-70.47,31.67
54905,8703,1817,-70.9,33.63
54905,8708,1945,-32.37,33.57
54906,8711,1941,-7.13,32.25
54906,8715,1928,6.37,30.96
54906,8717,1904,8.71,29.84
54906,8719,1869,0.34,28.37
54906,8721,1834,-15.07,27.7
54907,8723,1826,-26.99,27.67
54907,8725,1836,-31.09,27.84
54907,8727,1866,-24.0,27.65
54907,8729,1902,-7.81,26.65
54907,8731,1925,10.23,25.83
54907,8733,1929,23.43,25.71
54908,8735,1910,26.1,25.73
54908,8737,1886,19.96,25.44
54908,8740,1858,6.61,24.5
54908,8742,1855,-4.04,23.48
54908,8744,1862,-9.75,22.79
54908,8746,1877,-9.58,22.13
54908,8748,1893,-5.01,21.28
54908,8750,1903,0.85,20.26
54912,8752,1895,2.33,19.36
54961,8757,1854,-8.89,18.84
54961,8764,1871,-11.06,18.45
54962,8766,1869,-12.61,18.16
54962,8768,1860,-15.75,18.04
54962,8770,1853,-19.3,18.1
54962,8772,1858,-19.54,18.17
54962,8775,1850,-21.54,18.34
54962,8777,1846,-23.66,18.6
54962,8779,1860,-20.64,18.71
54962,8781,1886,-10.76,18.31
54963,8783,1903,0.78,17.43
54963,8785,1911,10.5,17.09
54963,8787,1923,20.02,17.23
54963,8789,1921,25.1,17.63
54963,8791,1908,23.9,17.94
54963,8793,1873,12.0,17.64
54963,8795,1833,-8.39,17.18
54963,8797,1813,-28.16,17.73
54963,8799,1808,-42.68,18.98
54964,8802,1819,-48.62,20.46
54964,8804,1841,-45.35,21.7
55006,8806,1860,-36.78,22.46
55007,8810,1886,-22.66,22.47
55007,8812,1871,-17.28,22.21
55008,8816,1849,-20.09,22.1
55008,8818,1846,-22.83,22.14
55008,8820,1856,-21.72,22.12
55008,8822,1860,-19.89,22.01
55008,8825,1864,-17.68,21.79
55008,8827,1858,-18.28,21.61
55009,8829,1864,-17.18,21.39
55009,8831,1871,-14.62,21.05
55009,8833,1884,-9.24,20.46
55009,8835,1903,-0.09,19.44
55009,8837,1925,12.56,19.1
55009,8839,1933,23.45,19.32
55009,8841,1921,27.21,19.71
55009,8843,1889,20.31,19.74
55010,8845,1857,6.39,19.08
55010,8847,1845,-6.06,18.42
55010,8849,1848,-12.86,18.15
55010,8852,1861,-12.83,17.88
55013,8854,1877,-7.39,17.36
55063,8858,1900,3.59,16.67
55063,8865,1815,-14.37,16.55
55064,8868,1814,-26.84,17.07
55064,8870,1838,-28.23,17.63
55064,8872,1876,-18.1,17.65
55064,8874,1926,3.16,16.93
55064,8876,1950,23.9,17.27
55064,8878,1944,35.12,18.17
55064,8880,1915,33.02,18.91
55065,8882,1876,19.12,18.92
55065,8884,1835,-2.95,18.12
55065,8886,1793,-30.4,18.73
55065,8888,1788,-49.9,20.29
55065,8890,1831,-49.29,21.74
55065,8892,1896,-28.35,22.07
55065,8894,1944,1.08,21.02
55065,8897,1970,29.38,21.44
55066,8899,1963,46.71,22.71
55066,8901,1933,49.48,24.04
55066,8903,1909,44.11,25.05
55066,8905,1891,35.0,25.54
55070,8907,1874,23.66,25.45
55071,8911,1856,10.53,24.7
55071,8914,1847,-1.12,23.53
55118,8918,1851,-7.89,22.74
55119,8923,1913,5.97,21.91
55119,8926,1935,21.6,21.89
55119,8928,1935,31.64,22.38
55119,8930,1922,33.89,22.95
55119,8932,1919,33.91,23.5
55119,8934,1911,31.04,23.88
55119,8936,1905,27.0,24.03
55119,8938,1898,22.07,23.94
55120,8940,1892,17.06,23.59
55120,8942,1890,13.38,23.08
55120,8944,1887,10.43,22.45
55120,8946,1890,9.85,21.82
55120,8948,1892,10.58,21.26
55120,8950,1896,12.72,20.83
55120,8952,1888,12.09,20.39
55120,8955,1875,7.94,19.77
55120,8957,1850,-2.33,18.9
55121,8959,1820,-18.34,18.87
55121,8961,1809,-32.63,19.56
55121,8963,1824,-38.01,20.48
55126,8965,1860,-31.2,21.02
55126,8969,1943,-2.23,20.08
55126,8971,1969,24.38,20.29
55174,8974,2002,51.3,21.84
55175,8978,1955,54.41,23.47
55175,8980,1924,46.43,24.62
55175,8982,1885,28.96,24.84
55175,8984,1860,9.79,24.08
55176,8986,1858,-3.15,23.04
55176,8988,1882,-3.71,22.07
55176,8990,1909,5.16,21.22
55176,8992,1920,15.56,20.94
55176,8995,1918,22.93,21.04
55176,8997,1902,23.82,21.18
55177,8999,1872,15.86,20.91
55177,9001,1855,5.59,20.15
55177,9003,1844,-4.69,19.37
55177,9005,1839,-13.42,19.08
55177,9007,1871,-10.25,18.64
55177,9009,1898,-0.81,17.74
55177,9011,1916,9.92,17.35
55178,9013,1920,17.15,17.34
55178,9015,1907,16.91,17.32
55178,9017,1877,6.69,16.79
55220,9021,1854,-7.84,16.34
55220,9026,1906,-2.34,15.64
55221,9028,1939,11.36,15.43
55221,9030,1949,23.96,15.85
55221,9033,1951,33.63,16.74
55221,9035,1952,41.24,17.97
55221,9037,1943,44.61,19.3
55222,9039,1925,42.5,20.46
55222,9041,1912,38.24,21.35
55222,9043,1901,33.05,21.93
55222,9045,1887,26.17,22.15
55222,9047,1889,22.7,22.17
55222,9049,1894,22.08,22.17
55222,9051,1893,21.2,22.12
55223,9053,1894,20.33,22.03
55223,9055,1897,19.72,21.92
55223,9057,1924,26.21,22.13
55223,9060,1933,31.91,22.62
55224,9062,1932,33.99,23.19
55224,9064,1925,31.91,23.62
55224,9066,1892,19.48,23.42
55275,9068,1869,3.46,22.42
55275,9072,1857,-11.17,21.86
55276,9075,1847,-23.77,21.95
55276,9077,1858,-28.27,22.27
55276,9079,1894,-19.48,22.13
55276,9081,1910,-7.62,21.4
55276,9083,1913,2.39,20.45
55276,9085,1917,11.32,20.0
55276,9087,1936,23.82,20.19
55277,9089,1969,42.69,21.31
55277,9091,1995,63.41,23.42
55277,9093,1996,77.52,26.12
55277,9095,1979,81.46,28.89
55277,9097,1953,75.66,31.23
55277,9099,1902,55.73,32.45
55277,9102,1851,26.34,32.15
55278,9104,1820,-3.25,30.7
55278,9106,1821,-23.16,30.33
55278,9108,1841,-30.72,30.34
55278,9110,1877,-25.11,30.08
55278,9112,1932,-5.0,28.83
55278,9114,1976,21.45,28.46
55320,9116,1979,39.7,29.02
55320,9121,1951,43.04,29.72
55320,9126,1872,21.13,29.29
55321,9128,1854,0.78,27.87
55321,9130,1839,-17.24,27.34
55321,9132,1835,-30.1,27.47
55321,9134,1841,-36.28,27.91
55321,9137,1869,-31.3,28.08
55321,9139,1914,-13.78,27.37
55321,9141,1957,11.36,26.57
55322,9143,1973,33.22,26.9
55322,9145,1970,46.87,27.9
55322,9147,1960,52.67,29.14
55322,9149,1931,47.38,30.05
55322,9151,1913,37.96,30.44
55322,9153,1896,26.16,30.23
55322,9155,1877,12.31,29.33
55322,9157,1866,-0.37,27.89
55323,9159,1865,-9.12,26.95
55323,9161,1875,-11.84,26.19
55323,9164,1873,-14.09,25.59
55366,9166,1860,-19.36,25.28
55367,9170,1872,-19.23,24.97
55367,9174,1913,-6.81,24.07
55367,9176,1931,6.86,23.21
55367,9178,1921,12.81,22.69
55367,9180,1899,9.88,22.05
55367,9182,1872,-0.53,20.97
55368,9184,1846,-15.56,20.7
55368,9186,1842,-26.94,21.01
55368,9188,1873,-25.2,21.22
55368,9190,1903,-14.85,20.9
55368,9192,1911,-5.33,20.12
55368,9194,1926,5.68,19.4
55368,9197,1921,11.64,19.01
55369,9199,1893,7.27,18.43
55369,9201,1871,-2.21,17.61
55369,9203,1855,-13.25,17.4
55369,9205,1858,-19.55,17.5
55369,9207,1872,-19.3,17.59
55369,9209,1898,-11.09,17.27
55369,9211,1907,-2.72,16.54
55377,9213,1901,1.1,15.77
55377,9217,1898,2.65,15.11
55423,9220,1877,-2.8,14.5
55423,9229,1854,-13.59,14.45
55424,9231,1876,-14.41,14.45
55425,9233,1876,-15.07,14.48
55425,9235,1865,-18.92,14.7
55426,9237,1829,-32.39,15.59
55426,9239,1793,-52.27,17.42
55426,9241,1790,-66.43,19.87
55426,9244,1827,-64.63,22.11
55426,9246,1869,-50.59,23.53
55426,9248,1907,-29.61,23.84
55427,9250,1938,-6.24,22.96
55427,9252,1946,11.69,22.39
55427,9254,1933,19.55,22.25
55427,9256,1921,20.98,22.19
55427,9258,1906,17.32,21.95
55427,9260,1871,4.43,21.07
55427,9262,1835,-14.74,20.75
55428,9264,1807,-35.5,21.49
55428,9266,1795,-52.33,23.03
55428,9269,1786,-65.53,25.16
55429,9271,1796,-70.64,27.43
55429,9275,1853,-56.37,28.88
55481,9277,1871,-41.07,29.49
55482,9282,1902,-21.59,29.09
55482,9284,1891,-12.27,28.25
55482,9286,1871,-12.76,27.48
55483,9288,1835,-24.77,27.34
55483,9290,1818,-38.75,27.91
55483,9292,1826,-46.34,28.83
55483,9295,1836,-48.8,29.83
55483,9297,1852,-45.78,30.63
55483,9299,1874,-37.06,30.95
55483,9301,1890,-26.13,30.71
55483,9303,1896,-16.59,30.0
55484,9305,1902,-7.86,28.9
55484,9307,1890,-4.98,27.7
55484,9309,1894,-1.15,26.37
55484,9311,1873,-4.12,25.26
55484,9313,1854,-11.07,24.55
55484,9315,1837,-20.13,24.33
55484,9317,1844,-23.49,24.29
55484,9319,1853,-22.57,24.2
55485,9322,1873,-15.73,23.78
55488,9324,1881,-8.79,23.03
55488,9330,1842,-16.2,22.69
55488,9332,1821,-28.09,22.96
55535,9334,1788,-46.69,24.14
55536,9340,1784,-61.09,25.99
55536,9342,1826,-58.77,27.63
55536,9344,1872,-43.95,28.45
55536,9346,1904,-24.89,28.27
55536,9348,1923,-6.86,27.2
55536,9350,1924,5.17,26.1
55537,9352,1921,12.17,25.4
55537,9354,1914,14.86,24.87
55537,9357,1885,8.38,24.05
55537,9359,1850,-5.73,23.13
55537,9361,1833,-19.26,22.94
55537,9363,1828,-28.57,23.22
55537,9365,1819,-36.17,23.87
55537,9367,1819,-40.02,24.68
55538,9369,1857,-30.2,24.95
55538,9371,1874,-17.89,24.6
55538,9373,1874,-9.52,23.85
55538,9375,1865,-7.0,23.0
55538,9377,1843,-12.73,22.49
55538,9379,1841,-18.27,22.28
55542,9381,1867,-15.41,21.94
55543,9385,1872,-13.2,21.5
55543,9388,1860,-16.49,21.25
55590,9391,1824,-30.47,21.71
55592,9395,1812,-44.12,22.83
55594,9397,1815,-52.58,24.32
55594,9399,1806,-60.72,26.14
55594,9401,1787,-71.26,28.39
55594,9403,1809,-70.81,30.51
55594,9405,1859,-54.34,31.71
55595,9407,1923,-22.86,31.26
55595,9409,1974,14.64,30.43
55595,9411,1998,47.79,31.3
55595,9414,1982,65.69,33.02
55595,9416,1952,68.89,34.81
55595,9418,1911,58.77,36.01
55595,9420,1872,40.28,36.22
55595,9422,1842,18.89,35.36
55596,9424,1831,1.3,33.65
55596,9426,1826,-11.94,32.57
55596,9430,1847,-14.54,31.67
55596,9432,1864,-11.34,30.65
55596,9434,1871,-7.47,29.49
55596,9436,1872,-5.16,28.27
55638,9438,1872,-4.35,27.08
55639,9442,1848,-11.8,26.31
55639,9445,1834,-21.77,26.09
55639,9448,1805,-37.76,26.67
55639,9450,1785,-54.87,28.08
55640,9452,1787,-65.84,29.97
55640,9454,1793,-71.22,32.03
55640,9456,1822,-65.74,33.72
55640,9458,1863,-49.25,34.49
55641,9460,1885,-31.05,34.32
55641,9462,1891,-16.57,33.43
55641,9464,1890,-6.77,32.1
55641,9466,1874,-4.65,30.73
55641,9468,1839,-13.4,29.86
55642,9470,1797,-31.52,29.94
55642,9472,1767,-52.27,31.06
55642,9475,1746,-72.02,33.11
55643,9477,1752,-83.0,35.6
55643,9479,1780,-81.56,37.9
55643,9481,1808,-71.98,39.6
55643,9483,1829,-59.33,40.59
55644,9485,1859,-42.22,40.67
55693,9489,1933,-9.15,39.1
55693,9497,1913,6.26,37.45
55693,9499,1895,10.28,36.1
55694,9501,1868,4.08,34.49
55694,9503,1833,-11.05,33.32
55694,9506,1827,-23.07,32.81
55694,9508,1792,-41.22,33.23
55694,9510,1760,-62.21,34.68
55694,9512,1772,-71.58,36.52
55695,9514,1828,-59.74,37.69
55695,9516,1901,-28.59,37.23
55695,9518,1965,12.54,36.0
55695,9520,2013,55.1,36.95
55695,9522,2024,87.04,39.46
55695,9524,2007,103.02,42.63
55695,9527,1974,103.22,45.66
55695,9529,1954,96.69,48.21
55696,9532,1952,91.13,50.36
55696,9534,1958,88.8,52.28
55696,9536,1967,89.71,54.15
55696,9538,1972,91.72,56.03
55701,9540,1981,95.75,58.02
55701,9545,1957,91.3,59.68
55746,9549,1913,75.18,60.46
55747,9553,1873,52.48,60.06
55747,9555,1891,42.82,59.2
55748,9557,1915,43.77,58.43
55748,9559,1935,50.49,58.03
55748,9561,1942,56.97,57.98
55748,9563,1945,61.81,58.17
55748,9565,1945,64.42,58.48
55748,9567,1940,63.9,58.75
55748,9569,1935,61.18,58.87
55749,9571,1912,51.62,58.51
55749,9573,1885,36.35,57.4
55749,9576,1861,18.34,55.45
55749,9578,1867,7.73,53.06
55749,9580,1872,2.03,50.51
55749,9582,1877,-0.21,48.0
55749,9584,1876,-1.82,45.69
55749,9586,1855,-8.96,43.85
55750,9588,1854,-13.8,42.35
55750,9590,1871,-11.65,40.81
55750,9592,1907,0.84,38.81
55752,9594,1938,18.67,37.81
55753,9598,1953,35.12,37.67
55805,9601,1936,40.85,37.83
55806,9606,1933,43.48,38.11
55806,9608,1930,44.02,38.41
55806,9610,1923,42.02,38.59
55806,9612,1906,35.4,38.43
55806,9614,1856,15.88,37.3
55806,9616,1844,-0.77,35.48
55807,9618,1828,-16.52,34.53
55807,9620,1842,-22.57,33.93
55807,9622,1876,-16.09,33.04
55807,9624,1905,-2.82,31.53
55807,9626,1909,7.32,30.32
55807,9628,1899,10.92,29.35
55808,9631,1882,7.86,28.27
55808,9634,1886,6.57,27.19
55808,9636,1879,3.19,25.99
55808,9638,1897,5.93,24.98
55808,9641,1892,5.98,24.03
55809,9643,1884,3.39,23.0
55809,9645,1876,-0.86,21.9
55809,9647,1881,-2.19,20.91
55849,9649,1875,-4.72,20.1
55850,9653,1853,-12.76,19.73
55850,9657,1831,-24.42,19.97
55850,9659,1845,-27.64,20.35
55851,9661,1870,-21.84,20.43
55851,9663,1904,-7.37,19.77
55851,9665,1914,5.55,19.06
55851,9668,1920,16.03,18.91
55851,9670,1907,18.98,18.91
55851,9672,1896,17.37,18.84
55851,9674,1881,11.47,18.47
55852,9676,1864,2.12,17.65
55852,9678,1856,-6.76,17.11
55852,9680,1859,-11.92,16.85
55852,9682,1866,-13.3,16.67
55852,9684,1890,-6.98,16.19
55853,9686,1890,-2.67,15.51
55853,9688,1858,-9.35,15.2
55853,9690,1824,-24.02,15.64
55853,9692,1807,-38.87,16.8
55853,9694,1818,-45.35,18.23
55898,9697,1839,-43.16,19.48
55898,9701,1898,-23.79,19.69
55898,9704,1909,-7.4,19.08
55899,9706,1894,-1.03,18.18
55899,9708,1867,-5.1,17.52
55899,9710,1824,-21.0,17.7
55899,9713,1789,-42.33,18.93
55899,9715,1778,-59.93,20.98
55899,9717,1777,-71.86,23.52
55900,9719,1792,-75.06,26.1
55900,9721,1809,-71.79,28.38
55900,9723,1808,-69.63,30.45
55900,9725,1802,-69.84,32.42
55900,9727,1808,-68.13,34.2
55900,9729,1806,-67.59,35.87
55900,9731,1804,-67.89,37.47
55900,9733,1813,-65.47,38.87
55901,9737,1823,-60.89,39.97
55901,9739,1824,-57.55,40.85
55901,9741,1824,-55.29,41.57
55901,9743,1839,-49.19,41.95
55945,9745,1847,-42.52,41.98
55946,9750,1915,-17.38,40.75
55946,9753,1907,-2.58,38.84
55947,9755,1878,-1.06,36.95
55947,9757,1862,-4.51,35.33
55947,9759,1856,-8.17,33.97
55947,9761,1846,-13.05,32.93
55947,9763,1843,-16.59,32.11
55947,9765,1839,-19.55,31.48
55948,9767,1829,-23.98,31.11
55948,9769,1830,-26.25,30.87
55948,9771,1834,-26.34,30.64
55948,9773,1829,-27.87,30.5
55948,9775,1829,-29.09,30.43
55949,9777,1837,-27.9,30.3
55949,9780,1830,-29.72,30.27
55949,9782,1816,-35.78,30.55
55949,9784,1792,-47.69,31.41
55950,9786,1766,-64.05,33.04
55950,9788,1771,-73.92,35.08
55950,9790,1801,-71.71,36.91
55994,9792,1838,-59.1,38.02
55994,9796,1864,-42.72,38.26
55994,9799,1856,-33.93,38.04
55995,9801,1834,-34.38,37.86
55995,9803,1826,-36.7,37.8
55995,9805,1830,-36.49,37.74
55995,9807,1856,-27.85,37.24
55995,9809,1876,-15.28,36.14
55996,9811,1889,-2.23,34.45
55996,9813,1897,9.53,33.2
55996,9815,1868,9.16,32.0
55996,9818,1858,6.21,30.71
55996,9820,1843,-0.08,29.18
55996,9822,1844,-3.9,27.91
55996,9824,1837,-8.55,26.95
55997,9826,1842,-10.3,26.11
55997,9828,1846,-10.5,25.33
55997,9830,1867,-4.69,24.3
55997,9832,1886,4.47,23.31
55997,9834,1877,7.4,22.51
55997,9836,1868,6.09,21.69
56038,9839,1837,-4.57,20.84
56039,9844,1820,-17.17,20.65
56039,9847,1795,-33.22,21.28
56039,9849,1773,-50.46,22.74
56039,9851,1774,-61.37,24.67
56039,9853,1788,-63.96,26.64
56040,9855,1792,-63.91,28.5
56040,9857,1796,-62.13,30.18
56040,9859,1815,-54.81,31.41
56040,9861,1838,-42.71,31.98
56040,9864,1830,-36.88,32.22
56040,9866,1815,-37.56,32.49
56040,9868,1813,-38.81,32.81
56040,9870,1818,-38.36,33.08
56041,9872,1834,-33.47,33.1
56041,9874,1845,-27.07,32.8
56041,9876,1823,-29.53,32.64
56041,9878,1804,-36.98,32.86
56041,9880,1795,-44.62,33.44
56042,9882,1808,-45.64,34.05
56042,9884,1816,-43.56,34.53
56087,9886,1826,-38.74,34.74
56087,9890,1828,-34.46,34.73
56088,9893,1820,-33.56,34.67
56088,9895,1821,-32.29,34.55
56088,9897,1811,-34.1,34.53
56088,9899,1803,-37.44,34.67
56088,9902,1801,-40.07,34.94
56088,9904,1790,-44.98,35.44
56088,9906,1789,-48.51,36.1
56089,9908,1807,-45.48,36.57
56089,9910,1824,-38.41,36.66
56089,9912,1839,-29.34,36.29
56089,9914,1850,-20.2,35.49
56089,9916,1857,-12.28,34.33
56089,9918,1848,-9.96,33.11
56089,9920,1845,-9.53,31.93
56090,9922,1841,-10.52,30.86
56090,9924,1830,-14.39,30.04
56090,9926,1806,-23.92,29.73
56090,9928,1793,-33.78,29.93
56090,9931,1769,-47.0,30.79
56138,9933,1726,-68.09,32.65
56138,9938,1710,-86.33,35.34
56138,9943,1824,-63.66,36.75
56139,9945,1867,-34.95,36.66
56139,9947,1890,-8.64,35.26
56139,9949,1893,9.66,33.98
56139,9951,1873,15.35,33.05
56139,9954,1828,4.94,31.64
56139,9956,1798,-11.74,30.65
56139,9958,1786,-27.02,30.47
56139,9960,1788,-36.88,30.79
56140,9962,1804,-38.67,31.18
56140,9964,1809,-38.14,31.53
56140,9966,1793,-42.24,32.07
56140,9968,1777,-49.39,32.93
56140,9970,1785,-51.3,33.85
56140,9972,1807,-45.46,34.43
56140,9974,1818,-37.75,34.6
56140,9976,1830,-28.61,34.3
56140,9978,1842,-18.65,33.51
56140,9980,1840,-12.5,32.46
56141,9983,1841,-8.13,31.25
56183,9985,1841,-5.33,29.95
56183,9989,1814,-11.73,29.04
56184,9992,1808,-17.99,28.49
56184,9994,1797,-25.58,28.34
56184,9996,1790,-32.79,28.56
56184,9998,1801,-34.25,28.85
56184,10001,1795,-36.9,29.25
56184,10003,1789,-40.33,29.81
56184,10005,1790,-42.18,30.42
56185,10007,1781,-45.96,31.2
56185,10009,1780,-48.66,32.07
56185,10011,1783,-49.44,32.94
56185,10013,1802,-44.15,33.5
56185,10015,1818,-35.73,33.61
56185,10017,1833,-25.57,33.21
56185,10019,1830,-19.72,32.54
56185,10021,1798,-25.5,32.19
56185,10023,1734,-48.66,33.01
56185,10025,1668,-83.95,35.56
56186,10028,1651,-112.48,39.4
56232,10030,1690,-119.43,43.4
56232,10034,1889,-63.8,44.42
56233,10036,1963,-3.81,42.39
56233,10041,1922,24.09,41.48
56233,10044,1822,12.32,40.02
56233,10046,1780,-8.7,38.45
56233,10048,1760,-29.04,37.98
56233,10051,1760,-42.56,38.21
56234,10053,1785,-43.73,38.49
56234,10055,1820,-33.41,38.23
56234,10057,1846,-18.08,37.23
56234,10059,1839,-9.37,35.83
56234,10061,1837,-3.74,34.23
56234,10063,1821,-4.49,32.74
56234,10065,1809,-8.4,31.52
56234,10067,1811,-10.3,30.46
56234,10069,1809,-12.1,29.55
56234,10071,1804,-14.8,28.81
56234,10073,1809,-15.19,28.13
56235,10075,1814,-14.1,27.43
56235,10077,1805,-16.27,26.87
56280,10080,1792,-21.89,26.62
56280,10084,1791,-26.22,26.6
56280,10087,1796,-27.83,26.66
56281,10089,1810,-24.88,26.57
56281,10091,1793,-28.1,26.65
56281,10094,1790,-31.23,26.88
56281,10096,1774,-38.11,27.44
56281,10098,1742,-52.19,28.68
56281,10100,1745,-60.51,30.27
56281,10102,1791,-51.94,31.35
56282,10104,1846,-29.28,31.25
56282,10106,1875,-5.07,29.94
56282,10108,1869,9.48,28.92
56282,10110,1845,12.02,28.07
56282,10112,1810,3.16,26.83
56282,10114,1778,-12.38,26.1
56282,10116,1767,-25.96,26.1
56282,10118,1745,-41.37,26.86
56282,10120,1729,-56.13,28.32
56283,10123,1729,-65.61,30.19
56283,10125,1746,-66.49,32.0
56329,10127,1776,-57.81,33.29
56329,10131,1831,-35.42,33.4
56329,10134,1814,-25.66,33.01
56329,10136,1798,-24.36,32.58
56329,10138,1778,-30.03,32.45
56329,10141,1756,-40.94,32.88
56330,10143,1752,-49.83,33.72
56330,10146,1778,-48.17,34.45
56330,10148,1782,-45.83,35.02
56330,10150,1780,-44.71,35.5
56330,10152,1766,-47.88,36.12
56330,10154,1748,-55.01,37.06
56330,10157,1737,-62.57,38.34
56330,10159,1740,-66.12,39.73
56330,10161,1746,-66.03,41.04
56331,10163,1769,-58.43,41.91
56331,10165,1785,-48.01,42.22
56331,10167,1784,-40.99,42.16
56331,10169,1777,-38.26,41.96
56331,10171,1776,-36.76,41.7
56331,10173,1770,-37.7,41.5
56375,10175,1771,-38.25,41.34
56375,10180,1767,-40.05,41.27
56376,10183,1734,-51.37,41.78
56376,10185,1707,-67.24,43.05
56376,10187,1676,-87.23,45.26
56376,10189,1662,-104.72,48.23
56376,10191,1677,-111.68,51.41
56377,10193,1680,-115.07,54.59
56377,10195,1689,-114.29,57.57
56377,10198,1728,-101.74,59.78
56377,10200,1784,-76.29,60.61
56377,10202,1820,-48.31,59.99
56377,10204,1833,-25.72,58.28
56378,10206,1835,-10.13,55.87
56378,10208,1826,-2.54,53.21
56378,10210,1822,1.32,50.61
56378,10212,1809,0.2,48.09
56378,10214,1790,-5.82,45.98
56378,10216,1751,-20.9,44.72
56378,10218,1727,-37.36,44.36
56378,10220,1743,-42.59,44.27
56424,10222,1765,-38.43,43.98
56425,10228,1802,-23.63,42.96
56425,10230,1788,-17.29,41.68
56425,10232,1783,-14.33,40.31
56426,10234,1782,-12.77,38.93
56426,10236,1773,-14.84,37.73
56426,10238,1768,-18.36,36.76
56426,10241,1770,-20.89,35.96
56426,10243,1760,-26.4,35.49
56426,10245,1746,-35.1,35.47
56427,10248,1733,-45.5,35.97
56427,10251,1740,-50.85,36.71
56427,10253,1738,-55.27,37.64
56427,10255,1746,-55.81,38.55
56427,10257,1746,-55.94,39.42
56427,10259,1748,-54.99,40.2
56428,10261,1776,-45.37,40.46
56428,10263,1790,-34.01,40.13
56428,10265,1785,-27.18,39.49
56428,10267,1782,-22.83,38.65
56428,10269,1776,-21.09,37.78
56472,10271,1759,-24.46,37.11
56472,10277,1729,-35.26,37.02
56472,10279,1722,-44.23,37.38
56472,10281,1716,-51.77,38.1
56473,10283,1713,-57.57,39.07
56473,10285,1707,-63.29,40.28
56473,10288,1717,-64.31,41.48
56473,10290,1734,-60.25,42.42
56473,10292,1719,-62.51,43.43
56473,10294,1707,-68.22,44.67
56473,10296,1733,-64.83,45.67
56473,10298,1767,-52.83,46.03
56473,10300,1777,-42.15,45.84
56474,10302,1789,-31.63,45.13
56474,10304,1797,-22.25,43.98
56474,10306,1780,-20.88,42.83
56474,10309,1764,-24.36,41.9
56474,10311,1739,-33.49,41.48
56474,10313,1710,-47.35,41.78
56474,10315,1695,-60.01,42.69
56480,10317,1709,-63.04,43.71
56481,10321,1781,-42.26,43.63
56531,10324,1808,-19.23,42.41
56531,10330,1790,-8.64,40.72
56531,10332,1750,-13.48,39.36
56532,10335,1722,-25.42,38.67
56532,10337,1715,-36.01,38.53
56532,10339,1718,-42.81,38.75
56532,10341,1721,-47.16,39.17
56532,10343,1726,-49.3,39.67
56532,10345,1737,-48.16,40.1
56533,10347,1726,-51.34,40.66
56533,10351,1712,-58.22,41.54
56533,10353,1702,-66.14,42.77
56533,10355,1702,-71.5,44.2
56533,10357,1724,-68.25,45.41
56533,10359,1743,-59.85,46.13
56533,10362,1745,-52.96,46.47
56533,10364,1730,-52.07,46.75
56533,10366,1733,-49.76,46.9
56533,10368,1718,-51.85,47.15
56534,10370,1709,-55.11,47.55
56576,10372,1701,-58.93,48.12
56577,10376,1694,-62.94,48.86
56577,10379,1693,-65.46,49.69
56577,10381,1683,-69.89,50.7
56577,10384,1706,-65.92,51.46
56577,10386,1744,-52.05,51.49
56578,10388,1760,-38.35,50.83
56578,10390,1760,-29.8,49.78
56578,10393,1750,-27.83,48.68
56578,10395,1739,-30.54,47.77
56578,10397,1723,-37.73,47.27
56578,10399,1725,-42.26,47.02
56578,10401,1713,-48.88,47.11
56579,10403,1691,-59.61,47.74
56579,10405,1683,-68.61,48.78
56579,10407,1714,-64.5,49.57
56579,10409,1740,-52.93,49.74
56579,10411,1762,-37.58,49.13
56579,10413,1783,-20.14,47.68
56579,10416,1790,-5.7,45.58
56579,10418,1775,-0.1,43.31
56623,10420,1747,-4.57,41.37
56623,10424,1735,-11.13,39.86
56624,10430,1716,-21.27,38.93
56624,10432,1705,-31.49,38.56
56624,10434,1699,-40.31,38.64
56624,10436,1681,-51.83,39.3
56624,10438,1678,-60.72,40.37
56625,10440,1690,-63.34,41.52
56625,10442,1715,-57.88,42.34
56625,10445,1726,-51.21,42.78
56625,10447,1734,-44.67,42.88
56625,10449,1744,-37.58,42.61
56625,10451,1745,-32.75,42.12
56626,10454,1763,-24.21,41.22
56626,10456,1773,-15.4,39.93
56626,10458,1763,-12.24,38.55
56626,10460,1749,-13.91,37.32
56626,10462,1742,-16.54,36.28
56626,10464,1723,-23.25,35.63
56627,10466,1694,-35.6,35.63
56627,10468,1680,-47.2,36.2
56670,10470,1680,-54.12,37.1
56671,10475,1740,-40.02,37.25
56671,10478,1771,-20.76,36.42
56671,10480,1769,-8.35,35.02
56671,10482,1757,-3.95,33.47
56671,10484,1734,-8.52,32.22
56671,10487,1691,-25.27,31.87
56672,10489,1686,-38.79,32.22
56672,10491,1685,-48.83,33.05
56672,10493,1677,-58.48,34.32
56672,10495,1663,-69.5,36.08
56672,10497,1661,-77.67,38.16
56672,10499,1661,-83.11,40.41
56672,10501,1664,-85.63,42.67
56673,10503,1680,-82.15,44.64
56673,10505,1700,-73.33,46.08
56673,10507,1709,-64.19,46.98
56673,10509,1691,-62.93,47.78
56673,10512,1685,-63.4,48.56
56673,10514,1690,-61.7,49.22
56673,10516,1709,-54.35,49.47
56720,10518,1752,-36.06,48.8
56720,10522,1792,-11.43,46.93
56720,10525,1780,1.67,44.67
56720,10527,1754,2.65,42.57
56721,10529,1727,-4.86,40.68
56721,10531,1706,-16.22,39.46
56721,10533,1687,-29.46,38.96
56721,10535,1668,-43.85,39.2
56721,10537,1661,-55.34,40.01
56721,10539,1677,-57.93,40.91
56721,10542,1681,-58.19,41.77
56721,10544,1675,-59.99,42.68
56721,10546,1679,-59.96,43.55
56721,10548,1687,-57.61,44.25
56722,10550,1703,-51.42,44.61
56722,10552,1715,-43.92,44.57
56722,10556,1713,-39.81,44.34
56722,10558,1697,-42.17,44.23
56722,10560,1707,-41.01,44.07
56722,10562,1669,-51.72,44.45
56722,10564,1668,-59.15,45.18
56767,10566,1678,-60.84,45.97
56767,10571,1682,-60.3,46.68
56768,10574,1693,-56.07,47.15
56768,10576,1699,-50.82,47.34
56768,10578,1705,-44.9,47.21
56768,10580,1719,-36.2,46.66
56768,10583,1718,-30.22,45.84
56768,10585,1710,-28.29,44.96
56769,10587,1695,-31.29,44.28
56769,10589,1685,-36.18,43.88
56769,10591,1681,-40.6,43.71
56769,10593,1695,-39.35,43.49
56769,10595,1723,-30.14,42.83
56769,10597,1737,-19.87,41.68
56769,10599,1738,-12.89,40.24
56769,10601,1728,-11.49,38.8
56769,10603,1685,-23.71,38.05
56770,10605,1663,-38.68,38.08
56770,10607,1663,-48.7,38.61
56770,10609,1674,-51.91,39.27
56770,10611,1677,-52.81,39.95
56813,10614,1699,-46.44,40.28
56814,10619,1737,-30.38,39.78
56814,10621,1729,-21.7,38.88
56814,10623,1714,-20.2,37.94
56814,10625,1680,-29.29,37.51
56814,10627,1651,-43.98,37.83
56815,10630,1644,-55.77,38.73
56815,10632,1630,-67.66,40.18
56815,10634,1624,-77.2,42.03
56815,10636,1643,-77.69,43.81
56815,10638,1662,-72.17,45.23
56815,10640,1689,-60.34,45.99
56815,10642,1724,-42.04,45.79
56815,10644,1753,-21.32,44.56
56815,10646,1773,-1.81,42.43
56816,10648,1778,12.37,40.92
56816,10650,1783,23.01,40.03
56816,10652,1762,23.66,39.21
56816,10654,1745,19.04,38.2
56816,10658,1712,6.38,36.61
56862,10660,1678,-11.67,35.36
56862,10666,1640,-34.26,35.31
56862,10668,1648,-45.92,35.84
56862,10671,1682,-42.36,36.16
56862,10673,1709,-30.85,35.9
56863,10675,1715,-20.65,35.14
56863,10677,1740,-6.07,33.68
56863,10679,1735,2.01,32.1
56863,10681,1713,0.22,30.51
56863,10683,1708,-3.37,29.15
56863,10685,1713,-5.27,27.95
56863,10687,1707,-9.36,27.02
56863,10689,1698,-15.74,26.46
56864,10691,1708,-17.78,26.03
56864,10693,1709,-19.35,25.69
56864,10695,1703,-22.43,25.53
56864,10698,1710,-22.33,25.37
56864,10700,1708,-22.51,25.23
56864,10702,1697,-25.32,25.23
56864,10704,1700,-25.51,25.25
56865,10706,1699,-25.0,25.23
56908,10708,1686,-27.6,25.35
56909,10712,1693,-26.33,25.4
56909,10715,1688,-26.21,25.44
56910,10717,1672,-30.36,25.69
56910,10719,1664,-35.24,26.16
56910,10721,1644,-44.46,27.08
56910,10723,1639,-52.35,28.34
56910,10725,1664,-50.56,29.45
56911,10727,1679,-45.44,30.25
56911,10729,1697,-37.39,30.61
56911,10732,1746,-18.16,29.99
56911,10734,1792,7.63,28.87
56911,10736,1793,24.37,28.64
56911,10738,1785,32.44,28.83
56912,10740,1791,39.21,29.35
56912,10742,1780,40.43,29.91
56912,10744,1753,33.56,30.09
56912,10746,1744,27.11,29.94
56912,10748,1746,24.64,29.68
56912,10750,1746,24.48,29.42
56913,10752,1750,27.12,29.3
56984,10755,1771,36.63,29.67
56985,10762,1765,42.35,30.3
56985,10765,1732,36.98,30.64
56985,10767,1719,29.69,30.59
56985,10769,1722,25.48,30.33
56985,10771,1723,22.31,29.93
56985,10773,1731,21.54,29.51
56986,10775,1748,24.75,29.27
56986,10777,1745,24.42,29.03
56986,10779,1757,26.12,28.89
56986,10781,1774,30.78,28.98
56986,10783,1765,29.84,29.02
56986,10785,1744,21.89,28.67
56986,10787,1735,13.3,27.9
56986,10789,1738,8.45,26.93
56987,10792,1743,7.25,25.94
56987,10794,1754,10.73,25.18
56987,10796,1770,19.17,24.88
56987,10798,1766,25.07,24.89
56987,10800,1772,32.27,25.26
56987,10802,1791,44.09,26.2
56988,10804,1808,58.15,27.8
57009,10807,1801,66.14,29.72
57009,10811,1780,65.4,31.5
57010,10813,1758,58.08,32.83
57010,10815,1753,51.09,33.74
57011,10817,1766,49.46,34.53
57011,10819,1776,50.3,35.32
57011,10821,1791,54.11,36.26
57011,10823,1817,63.13,37.6
57011,10825,1811,66.04,39.02
57012,10828,1805,64.96,40.32
57012,10830,1799,61.46,41.38
57012,10832,1790,55.8,42.1
57013,10834,1790,51.81,42.58
57013,10836,1807,54.46,43.18
57013,10838,1805,56.23,43.83
57013,10840,1800,56.76,44.48
57013,10842,1811,61.41,45.32
57013,10844,1830,71.27,46.62
57013,10846,1830,78.85,48.23
57014,10848,1824,82.86,49.96
57014,10850,1815,83.31,51.63
57015,10852,1773,71.14,52.61
57062,10856,1713,44.8,52.22
57063,10868,1872,74.4,53.32
57063,10870,1874,94.27,55.37
57063,10873,1858,101.69,57.69
57063,10875,1827,95.96,59.6
57064,10877,1802,83.11,60.78
57064,10879,1793,70.43,61.26
57064,10881,1794,61.12,61.25
57064,10883,1804,57.11,61.05
57064,10885,1833,62.68,61.13
57064,10887,1846,70.18,61.58
57064,10889,1857,78.63,62.43
57065,10891,1858,84.91,63.56
57065,10893,1856,89.0,64.83
57065,10895,1841,87.85,65.98
57065,10897,1827,83.55,66.86
57065,10899,1840,85.25,67.78
57065,10902,1821,81.33,68.45
57066,10904,1826,80.64,69.06
57066,10906,1829,81.3,69.68
57066,10908,1812,76.57,70.02
57111,10910,1810,72.41,70.14
57111,10914,1851,81.25,70.7
57112,10917,1867,91.08,71.71
57112,10919,1880,100.41,73.15
57112,10921,1878,104.74,74.73
57112,10923,1867,102.99,76.14
57112,10925,1864,99.67,77.32
57112,10927,1856,94.07,78.16
57113,10929,1840,84.86,78.49
57113,10931,1828,74.8,78.31
57113,10933,1840,71.76,77.98
57113,10936,1835,68.65,77.51
57113,10938,1818,62.11,76.74
57113,10940,1810,56.08,75.71
57113,10942,1802,50.43,74.45
57114,10944,1793,44.65,72.96
57114,10946,1805,44.91,71.55
57114,10948,1822,50.46,70.5
57114,10950,1833,57.43,69.85
57114,10952,1855,68.25,69.77
57114,10954,1886,84.01,70.48
57162,10956,1904,98.88,71.9
57164,10961,1893,104.24,73.52
57166,10967,1823,85.44,74.11
57166,10969,1817,69.75,73.89
57167,10971,1818,58.62,73.13
57168,10973,1840,57.23,72.33
57171,10975,1899,73.82,72.41
57171,10977,1923,92.25,73.4
57171,10979,1936,108.74,75.17
57171,10981,1926,117.14,77.27
57172,10983,1922,122.0,79.5
57172,10985,1881,113.5,81.2
57173,10987,1846,97.9,82.04
57174,10989,1839,85.99,82.24
57174,10992,1835,77.45,82.0
57174,10994,1833,71.6,81.48
57175,10996,1852,73.59,81.08
57175,10998,1873,81.08,81.08
57182,11000,1883,88.53,81.45
57183,11002,1897,96.75,82.22
57186,11004,1892,99.45,83.08
57206,11006,1869,92.84,83.57
57207,11012,1846,79.93,83.39
57207,11014,1833,65.94,82.51
57207,11016,1839,57.21,81.25
57207,11018,1848,53.26,79.85
57208,11020,1871,57.06,78.71
57208,11023,1902,68.8,78.21
57208,11025,1915,80.72,78.34
57208,11027,1904,85.77,78.71
57208,11029,1884,83.67,78.96
57209,11031,1873,79.62,78.99
57209,11033,1866,75.6,78.82
57209,11035,1871,75.23,78.64
57209,11037,1882,79.01,78.66
57210,11039,1884,82.67,78.86
57210,11041,1877,83.25,79.08
57210,11043,1892,88.01,79.53
57211,11045,1925,100.65,80.58
57211,11047,1949,115.55,82.33
57211,11049,1973,131.63,84.8
57211,11052,1999,148.88,88.0
57214,11054,1993,157.22,91.46
57260,11058,1951,148.78,94.33
57261,11066,1903,127.51,95.99
57261,11069,1919,117.22,97.05
57262,11071,1930,113.31,97.86
57262,11073,1936,112.55,98.6
57262,11075,1923,108.48,99.09
57263,11078,1930,108.39,99.56
57263,11080,1920,105.98,99.88
57263,11082,1910,102.01,99.98
57263,11084,1903,97.79,99.87
57263,11086,1897,93.55,99.56
57263,11088,1890,88.75,99.02
57264,11090,1884,83.57,98.24
57264,11092,1883,79.33,97.3
57264,11094,1880,74.81,96.17
57264,11096,1879,70.45,94.89
57265,11098,1888,69.0,93.59
57265,11100,1902,70.89,92.46
57265,11102,1903,71.1,91.39
57265,11105,1900,69.04,90.27
57267,11107,1900,66.56,89.09
57267,11111,1842,46.68,86.97
57313,11113,1837,31.36,84.19
57313,11119,1935,50.49,82.5
57313,11121,1974,75.41,82.15
57314,11123,1996,99.23,83.0
57314,11126,2000,116.95,84.7
57314,11128,2000,129.41,86.93
57314,11130,1964,127.55,88.97
57314,11132,1917,112.81,90.16
57315,11134,1881,92.74,90.29
57315,11136,1855,72.09,89.38
57315,11138,1844,55.47,87.68
