emg_ts,raw,clean,envelope
14336,1291,1291,1291
14337,1385,1385,1385
14338,1519,1519,1519
14339,1680,1680,1680
14340,1845,1845,1845
14341,2005,2005,2005
14342,2151,2151,2151
14343,2259,2259,2259
14344,2327,2327,2327
14345,2326,2326,2326
14348,2039,2039,2039
14349,1892,1892,1892
14350,1711,1711,1711
14351,1535,1535,1535
14352,1390,1390,1390
14353,1285,1285,1285
14354,1211,1211,1211
14355,1200,1200,1200
14356,1251,1251,1251
14357,1341,1341,1341
14359,1970,1970,1970
14360,2113,2113,2113
14361,2218,2218,2218
14362,2282,2282,2282
14363,2291,2291,2291
14364,2254,2254,2254
14365,2160,2160,2160
14366,2021,2021,2021
14367,1862,1862,1862
14368,1695,1695,1695
14370,1298,1298,1298
14371,1249,1249,1249
14372,1249,1249,1249
14373,1293,1293,1293
14374,1379,1379,1379
14375,1503,1503,1503
14376,1664,1664,1664
14377,1824,1824,1824
14378,1974,1974,1974
14379,2112,2112,2112
14385,2210,2210,2210
14386,2260,2260,2260
14387,2270,2270,2270
14388,2226,2226,2226
14389,2147,2147,2147
14390,2009,2009,2009
14391,1867,1867,1867
14392,1700,1700,1700
14393,1552,1552,1552
14394,1418,1418,1418
14399,1405,1405,1405
14400,1472,1472,1472
14401,1728,1728,1728
14402,1907,1907,1907
14403,2071,2071,2071
14404,2227,2227,2227
14405,2347,2347,2347
14406,2416,2416,2416
14407,2451,2451,2451
14408,2413,2413,2413
14410,1384,1384,1384
14411,1263,1263,1263
14412,1183,1183,1183
14413,1154,1154,1154
14414,1186,1186,1186
14415,1271,1271,1271
14416,1401,1401,1401
14417,1561,1561,1561
14418,1735,1735,1735
14419,1897,1897,1897
14427,2160,2160,2160
14428,2192,2192,2192
14429,2238,2238,2238
14430,2192,2192,2192
14431,2113,2113,2113
14432,1994,1994,1994
14433,1855,1855,1855
14434,1714,1714,1714
14435,1589,1589,1589
14436,1472,1472,1472
14439,1786,1786,1786
14440,1963,1963,1963
14441,2128,2128,2128
14442,2261,2261,2261
14443,2377,2377,2377
14444,2441,2441,2441
14445,2453,2453,2453
14446,2417,2417,2417
14447,2334,2334,2334
14448,2208,2208,2208
14450,1599,1599,1599
14451,1493,1493,1493
14452,1429,1429,1429
14453,1413,1413,1413
14454,1456,1456,1456
14455,1533,1533,1533
14456,1664,1664,1664
14457,1814,1814,1814
14458,1988,1988,1988
14459,2157,2157,2157
14461,2496,2496,2496
14462,2510,2510,2510
14463,2458,2458,2458
14464,2362,2362,2362
14465,2231,2231,2231
14466,2081,2081,2081
14467,1915,1915,1915
14468,1754,1754,1754
14469,1611,1611,1611
14470,1490,1490,1490
14478,1407,1407,1407
14479,1387,1387,1387
14480,1389,1389,1389
14481,1513,1513,1513
14482,1649,1649,1649
14483,1810,1810,1810
14484,1985,1985,1985
14485,2150,2150,2150
14486,2302,2302,2302
14487,2405,2405,2405
14490,1873,1873,1873
14491,1705,1705,1705
14492,1535,1535,1535
14493,1417,1417,1417
14494,1348,1348,1348
14495,1328,1328,1328
14496,1374,1374,1374
14497,1465,1465,1465
14498,1604,1604,1604
14499,1759,1759,1759
14501,2370,2370,2370
14502,2435,2435,2435
14503,2458,2458,2458
14504,2426,2426,2426
14505,2345,2345,2345
14506,2215,2215,2215
14507,2054,2054,2054
14508,1865,1865,1865
14509,1682,1682,1682
14510,1521,1521,1521
14512,1331,1331,1331
14513,1314,1314,1314
14514,1366,1366,1366
14515,1457,1457,1457
14516,1603,1603,1603
14517,1758,1758,1758
14518,1936,1936,1936
14519,2098,2098,2098
14520,2243,2243,2243
14521,2355,2355,2355
14524,2430,2430,2430
14525,2387,2387,2387
14526,2305,2305,2305
14527,2251,2251,2251
14528,2007,2007,2007
14529,1850,1850,1850
14530,1712,1712,1712
14531,1574,1574,1574
14532,1466,1466,1466
14533,1397,1397,1397
14536,1424,1424,1424
14537,1513,1513,1513
14538,1645,1645,1645
14539,1790,1790,1790
14540,1947,1947,1947
14541,2025,2025,2025
14542,2245,2245,2245
14543,2345,2345,2345
14544,2415,2415,2415
14545,2427,2427,2427
14547,2022,2022,2022
14548,1844,1844,1844
14549,1681,1681,1681
14550,1531,1531,1531
14551,1424,1424,1424
14552,1376,1376,1376
14553,1327,1327,1327
14554,1354,1354,1354
14555,1429,1429,1429
14556,1570,1570,1570
14558,1882,1882,1882
14559,2045,2045,2045
14560,2194,2194,2194
14561,2298,2298,2298
14562,2353,2353,2353
14563,2361,2361,2361
14564,2322,2322,2322
14565,2295,2295,2295
14566,2109,2109,2109
14567,1952,1952,1952
14569,1603,1603,1603
14570,1459,1459,1459
14571,1347,1347,1347
14572,1277,1277,1277
14573,1259,1259,1259
14574,1287,1287,1287
14575,1365,1365,1365
14576,1491,1491,1491
14577,1648,1648,1648
14578,1719,1719,1719
14584,2131,2131,2131
14585,2237,2237,2237
14586,2305,2305,2305
14587,2318,2318,2318
14588,2281,2281,2281
14589,2194,2194,2194
14590,2064,2064,2064
14591,1903,1903,1903
14592,1718,1718,1718
14593,1535,1535,1535
14595,1102,1102,1102
14596,1171,1171,1171
14597,1293,1293,1293
14598,1435,1435,1435
14599,1606,1606,1606
14600,1766,1766,1766
14601,1914,1914,1914
14602,2032,2032,2032
14603,2111,2111,2111
14604,2135,2135,2135
14612,1841,1841,1841
14613,1677,1677,1677
14614,1469,1469,1469
14615,1288,1288,1288
14616,1136,1136,1136
14617,1023,1023,1023
14618,971,971,971
14619,985,985,985
14620,1045,1045,1045
14621,1157,1157,1157
14623,2241,2241,2241
14624,2270,2270,2270
14625,2240,2240,2240
14626,2158,2158,2158
14627,2019,2019,2019
14628,1856,1856,1856
14629,1671,1671,1671
14630,1488,1488,1488
14631,1421,1421,1421
14632,1216,1216,1216
14635,1172,1172,1172
14636,1272,1272,1272
14637,1413,1413,1413
14638,1585,1585,1585
14639,1798,1798,1798
14640,1977,1977,1977
14641,2138,2138,2138
14642,2247,2247,2247
14643,2310,2310,2310
14644,2320,2320,2320
14646,2165,2165,2165
14647,2026,2026,2026
14648,1861,1861,1861
14649,1683,1683,1683
14650,1507,1507,1507
14651,1354,1354,1354
14652,1238,1238,1238
14653,1163,1163,1163
14654,1137,1137,1137
14655,1177,1177,1177
14661,1569,1569,1569
14662,1759,1759,1759
14663,1919,1919,1919
14664,2079,2079,2079
14665,2190,2190,2190
14666,2256,2256,2256
14667,2278,2278,2278
14668,2227,2227,2227
14669,2139,2139,2139
14670,1999,1999,1999
14674,1163,1163,1163
14675,1147,1147,1147
14676,1170,1170,1170
14677,1260,1260,1260
14678,1385,1385,1385
14679,1535,1535,1535
14680,1727,1727,1727
14681,1879,1879,1879
14682,2029,2029,2029
14683,2141,2141,2141
14686,2097,2097,2097
14687,1968,1968,1968
14688,1812,1812,1812
14689,1632,1632,1632
14690,1456,1456,1456
14691,1300,1300,1300
14692,1200,1200,1200
14693,1126,1126,1126
14694,1113,1113,1113
14695,1158,1158,1158
14697,1406,1406,1406
14698,1553,1553,1553
14699,1730,1730,1730
14700,1904,1904,1904
14701,2064,2064,2064
14702,2181,2181,2181
14703,2255,2255,2255
14704,2262,2262,2262
14705,2220,2220,2220
14706,2128,2128,2128
14708,1456,1456,1456
14709,1310,1310,1310
14710,1201,1201,1201
14711,1131,1131,1131
14712,1104,1104,1104
14713,1132,1132,1132
14714,1217,1217,1217
14715,1343,1343,1343
14716,1499,1499,1499
14717,1681,1681,1681
14720,1845,1845,1845
14721,1999,1999,1999
14722,2054,2054,2054
14723,2187,2187,2187
14724,2213,2213,2213
14725,2176,2176,2176
14726,2100,2100,2100
14727,1954,1954,1954
14728,1808,1808,1808
14729,1626,1626,1626
14732,1295,1295,1295
14733,1175,1175,1175
14734,1117,1117,1117
14735,1098,1098,1098
14736,1111,1111,1111
14737,1248,1248,1248
14738,1387,1387,1387
14739,1533,1533,1533
14740,1715,1715,1715
14741,1891,1891,1891
14743,2281,2281,2281
14744,2256,2256,2256
14745,2187,2187,2187
14746,2064,2064,2064
14747,1995,1995,1995
14748,1714,1714,1714
14749,1535,1535,1535
14750,1375,1375,1375
14751,1243,1243,1243
14752,1155,1155,1155
14754,1166,1166,1166
14755,1248,1248,1248
14756,1386,1386,1386
14757,1535,1535,1535
14758,1726,1726,1726
14759,1894,1894,1894
14760,1965,1965,1965
14761,2164,2164,2164
14762,2234,2234,2234
14763,2245,2245,2245
14769,2131,2131,2131
14770,1991,1991,1991
14771,1833,1833,1833
14772,1661,1661,1661
14773,1488,1488,1488
14774,1334,1334,1334
14775,1214,1214,1214
14776,1136,1136,1136
14777,1111,1111,1111
14778,1126,1126,1126
14783,1993,1993,1993
14784,2113,2113,2113
14785,2192,2192,2192
14786,2215,2215,2215
14787,2192,2192,2192
14788,2105,2105,2105
14789,2058,2058,2058
14790,1820,1820,1820
14791,1645,1645,1645
14792,1478,1478,1478
14795,1136,1136,1136
14796,1229,1229,1229
14797,1365,1365,1365
14798,1530,1530,1530
14799,1712,1712,1712
14800,1799,1799,1799
14801,2036,2036,2036
14802,2147,2147,2147
14803,2214,2214,2214
14804,2230,2230,2230
14806,1949,1949,1949
14807,1789,1789,1789
14808,1615,1615,1615
14809,1433,1433,1433
14810,1270,1270,1270
14811,1135,1135,1135
14812,1089,1089,1089
14813,1008,1008,1008
14814,1031,1031,1031
14815,1101,1101,1101
14820,1357,1357,1357
14821,1526,1526,1526
14822,1701,1701,1701
14823,1847,1847,1847
14824,1963,1963,1963
14825,2037,2037,2037
14826,2064,2064,2064
14827,2022,2022,2022
14828,1990,1990,1990
14829,1807,1807,1807
14832,1031,1031,1031
14833,952,952,952
14834,933,933,933
14835,967,967,967
14836,1053,1053,1053
14837,1190,1190,1190
14838,1345,1345,1345
14839,1425,1425,1425
14840,1696,1696,1696
14841,1843,1843,1843
14843,2064,2064,2064
14844,2032,2032,2032
14845,1963,1963,1963
14846,1838,1838,1838
14847,1670,1670,1670
14848,1487,1487,1487
14849,1301,1301,1301
14850,1139,1139,1139
14851,1079,1079,1079
14852,943,943,943
14854,974,974,974
14855,1072,1072,1072
14856,1213,1213,1213
14857,1392,1392,1392
14858,1583,1583,1583
14859,1753,1753,1753
14860,1910,1910,1910
14861,2023,2023,2023
14862,2109,2109,2109
14863,2129,2129,2129
14865,2033,2033,2033
14866,1911,1911,1911
14867,1774,1774,1774
14868,1599,1599,1599
14869,1425,1425,1425
14870,1270,1270,1270
14871,1149,1149,1149
14872,1069,1069,1069
14873,1031,1031,1031
14874,1056,1056,1056
14877,1264,1264,1264
14878,1328,1328,1328
14879,1628,1628,1628
14880,1802,1802,1802
14881,1975,1975,1975
14882,2099,2099,2099
14883,2188,2188,2188
14884,2206,2206,2206
14885,2197,2197,2197
14886,2131,2131,2131
14890,1668,1668,1668
14891,1493,1493,1493
14892,1415,1415,1415
14893,1210,1210,1210
14894,1136,1136,1136
14895,1111,1111,1111
14896,1142,1142,1142
14897,1220,1220,1220
14898,1333,1333,1333
14899,1490,1490,1490
14901,1995,1995,1995
14902,2127,2127,2127
14903,2205,2205,2205
14904,2223,2223,2223
14905,2205,2205,2205
14906,2127,2127,2127
14907,1991,1991,1991
14908,1840,1840,1840
14909,1650,1650,1650
14910,1469,1469,1469
14912,1090,1090,1090
14913,1072,1072,1072
14914,1104,1104,1104
14915,1193,1193,1193
14916,1245,1245,1245
14917,1487,1487,1487
14918,1674,1674,1674
14919,1840,1840,1840
14920,1993,1993,1993
14921,2127,2127,2127
14926,2225,2225,2225
14927,2192,2192,2192
14928,2115,2115,2115
14929,1985,1985,1985
14930,1829,1829,1829
14931,1648,1648,1648
14932,1566,1566,1566
14933,1312,1312,1312
14934,1188,1188,1188
14935,1109,1109,1109
14938,1520,1520,1520
14939,1711,1711,1711
14940,1878,1878,1878
14941,2032,2032,2032
14942,2155,2155,2155
14943,2195,2195,2195
14944,2256,2256,2256
14945,2221,2221,2221
14946,2128,2128,2128
14947,1986,1986,1986
14949,1459,1459,1459
14950,1302,1302,1302
14951,1185,1185,1185
14952,1102,1102,1102
14953,1075,1075,1075
14954,1106,1106,1106
14955,1138,1138,1138
14956,1331,1331,1331
14957,1488,1488,1488
14958,1674,1674,1674
14960,1996,1996,1996
14961,2125,2125,2125
14962,2202,2202,2202
14963,2234,2234,2234
14964,2212,2212,2212
14965,2143,2143,2143
14966,2013,2013,2013
14967,1858,1858,1858
14968,1790,1790,1790
14969,1523,1523,1523
14976,1250,1250,1250
14977,1175,1175,1175
14978,1145,1145,1145
14979,1169,1169,1169
14980,1250,1250,1250
14981,1384,1384,1384
14982,1535,1535,1535
14983,1727,1727,1727
14984,1897,1897,1897
14985,2059,2059,2059
14990,1872,1872,1872
14991,1680,1680,1680
14992,1488,1488,1488
14993,1321,1321,1321
14994,1187,1187,1187
14995,1098,1098,1098
14996,1074,1074,1074
14997,1084,1084,1084
14998,1191,1191,1191
14999,1329,1329,1329
15001,2009,2009,2009
15002,2145,2145,2145
15003,2231,2231,2231
15004,2257,2257,2257
15005,2237,2237,2237
15006,2153,2153,2153
15007,2019,2019,2019
15008,1955,1955,1955
15009,1681,1681,1681
15010,1506,1506,1506
15012,1137,1137,1137
15013,1120,1120,1120
15014,1150,1150,1150
15015,1228,1228,1228
15016,1351,1351,1351
15017,1515,1515,1515
15018,1702,1702,1702
15019,1877,1877,1877
15020,1957,1957,1957
15021,2181,2181,2181
15023,2292,2292,2292
15024,2257,2257,2257
15025,2177,2177,2177
15026,2046,2046,2046
15027,1883,1883,1883
15028,1699,1699,1699
15029,1520,1520,1520
15030,1366,1366,1366
15031,1241,1241,1241
15032,1164,1164,1164
15035,1165,1165,1165
15036,1247,1247,1247
15037,1374,1374,1374
15038,1535,1535,1535
15039,1716,1716,1716
15040,1903,1903,1903
15041,2073,2073,2073
15042,2196,2196,2196
15043,2283,2283,2283
15044,2307,2307,2307
15046,2187,2187,2187
15047,2126,2126,2126
15048,1840,1840,1840
15049,1646,1646,1646
15050,1443,1443,1443
15051,1257,1257,1257
15052,1105,1105,1105
15053,999,999,999
15054,959,959,959
15055,976,976,976
15064,1328,1328,1328
15065,1497,1497,1497
15066,1600,1600,1600
15067,1851,1851,1851
15068,1967,1967,1967
15069,2069,2069,2069
15070,2136,2136,2136
15071,2137,2137,2137
15072,2111,2111,2111
15073,2032,2032,2032
15076,1163,1163,1163
15077,1254,1254,1254
15078,1378,1378,1378
15079,1535,1535,1535
15080,1714,1714,1714
15081,1883,1883,1883
15082,2037,2037,2037
15083,2166,2166,2166
15084,2251,2251,2251
15085,2278,2278,2278
15088,1882,1882,1882
15089,1711,1711,1711
15090,1531,1531,1531
15091,1371,1371,1371
15092,1233,1233,1233
15093,1151,1151,1151
15094,1107,1107,1107
15095,1127,1127,1127
15096,1201,1201,1201
15097,1328,1328,1328
15101,1851,1851,1851
15102,2024,2024,2024
15103,2147,2147,2147
15104,2245,2245,2245
15105,2285,2285,2285
15106,2270,2270,2270
15107,2202,2202,2202
15108,2084,2084,2084
15109,1925,1925,1925
15110,1746,1746,1746
15114,1177,1177,1177
15115,1145,1145,1145
15116,1175,1175,1175
15117,1264,1264,1264
15118,1398,1398,1398
15119,1572,1572,1572
15120,1761,1761,1761
15121,1936,1936,1936
15122,2097,2097,2097
15123,2214,2214,2214
15127,2220,2220,2220
15128,2067,2067,2067
15129,1889,1889,1889
15130,1678,1678,1678
15131,1463,1463,1463
15132,1279,1279,1279
15133,1128,1128,1128
15134,1015,1015,1015
15135,975,975,975
15136,994,994,994
15138,1586,1586,1586
15139,1750,1750,1750
15140,1904,1904,1904
15141,2023,2023,2023
15142,2099,2099,2099
15143,2127,2127,2127
15144,2091,2091,2091
15145,1994,1994,1994
15146,1855,1855,1855
15147,1685,1685,1685
15158,1301,1301,1301
15159,1231,1231,1231
15160,984,984,984
15161,898,898,898
15162,868,868,868
15163,906,906,906
15164,1017,1017,1017
15165,1215,1215,1215
15166,1410,1410,1410
15167,1637,1637,1637
15169,1711,1711,1711
15170,1505,1505,1505
15171,1348,1348,1348
15172,1211,1211,1211
15173,1125,1125,1125
15174,1094,1094,1094
15175,1123,1123,1123
15176,1215,1215,1215
15177,1270,1270,1270
15178,1531,1531,1531
15180,2069,2069,2069
15181,2192,2192,2192
15182,2272,2272,2272
15183,2297,2297,2297
15184,2262,2262,2262
15185,2181,2181,2181
15186,2047,2047,2047
15187,1894,1894,1894
15188,1710,1710,1710
15189,1616,1616,1616
15198,1229,1229,1229
15199,1153,1153,1153
15200,1123,1123,1123
15201,1152,1152,1152
15202,1232,1232,1232
15203,1361,1361,1361
15204,1516,1516,1516
15205,1706,1706,1706
15206,1879,1879,1879
15207,2037,2037,2037
15210,1764,1764,1764
15211,1594,1594,1594
15212,1437,1437,1437
15213,1309,1309,1309
15214,1216,1216,1216
15215,1182,1182,1182
15216,1198,1198,1198
15217,1218,1218,1218
15218,1402,1402,1402
15219,1558,1558,1558
15221,2208,2208,2208
15222,2293,2293,2293
15223,2322,2322,2322
15224,2300,2300,2300
15225,2224,2224,2224
15226,2101,2101,2101
15227,1941,1941,1941
15228,1861,1861,1861
15229,1577,1577,1577
15230,1406,1406,1406
15232,1200,1200,1200
15233,1164,1164,1164
15234,1195,1195,1195
15235,1278,1278,1278
15236,1411,1411,1411
15237,1584,1584,1584
15238,1773,1773,1773
15239,1961,1961,1961
15240,2132,2132,2132
15241,2192,2192,2192
15247,2397,2397,2397
15248,2362,2362,2362
15249,2271,2271,2271
15250,2135,2135,2135
15251,1968,1968,1968
15252,1774,1774,1774
15253,1584,1584,1584
15254,1408,1408,1408
15255,1271,1271,1271
15256,1181,1181,1181
15259,1785,1785,1785
15260,1978,1978,1978
15261,2161,2161,2161
15262,2289,2289,2289
15263,2376,2376,2376
15264,2399,2399,2399
15265,2363,2363,2363
15266,2270,2270,2270
15267,2139,2139,2139
15268,2064,2064,2064
15270,1424,1424,1424
15271,1283,1283,1283
15272,1194,1194,1194
15273,1142,1142,1142
15274,1163,1163,1163
15275,1235,1235,1235
15276,1367,1367,1367
15277,1530,1530,1530
15278,1730,1730,1730
15279,1915,1915,1915
15281,2223,2223,2223
15282,2320,2320,2320
15283,2362,2362,2362
15284,2349,2349,2349
15285,2282,2282,2282
15286,2168,2168,2168
15287,2012,2012,2012
15288,1834,1834,1834
15289,1653,1653,1653
15290,1472,1472,1472
15292,1230,1230,1230
15293,1206,1206,1206
15294,1211,1211,1211
15295,1286,1286,1286
15296,1414,1414,1414
15297,1573,1573,1573
15298,1759,1759,1759
15299,1927,1927,1927
15300,2095,2095,2095
15301,2218,2218,2218
15313,2352,2352,2352
15314,2329,2329,2329
15315,2262,2262,2262
15316,2210,2210,2210
15317,1971,1971,1971
15318,1793,1793,1793
15319,1617,1617,1617
15320,1467,1467,1467
15321,1360,1360,1360
15322,1288,1288,1288
15324,2394,2394,2394
15325,2368,2368,2368
15326,2289,2289,2289
15327,2161,2161,2161
15328,1999,1999,1999
15329,1806,1806,1806
15330,1616,1616,1616
15331,1435,1435,1435
15332,1294,1294,1294
15333,1246,1246,1246
15335,1255,1255,1255
15336,1382,1382,1382
15337,1535,1535,1535
15338,1727,1727,1727
15339,1904,1904,1904
15340,2083,2083,2083
15341,2215,2215,2215
15342,2317,2317,2317
15343,2368,2368,2368
15344,2359,2359,2359
15348,2171,2171,2171
15349,2015,2015,2015
15350,1825,1825,1825
15351,1636,1636,1636
15352,1456,1456,1456
15353,1306,1306,1306
15354,1202,1202,1202
15355,1152,1152,1152
15356,1161,1161,1161
15357,1233,1233,1233
15362,1893,1893,1893
15363,2083,2083,2083
15364,2224,2224,2224
15365,2335,2335,2335
15366,2381,2381,2381
15367,2357,2357,2357
15368,2277,2277,2277
15369,2145,2145,2145
15370,1973,1973,1973
15371,1786,1786,1786
15374,1132,1132,1132
15375,1140,1140,1140
15376,1212,1212,1212
15377,1339,1339,1339
15378,1492,1492,1492
15379,1686,1686,1686
15380,1878,1878,1878
15381,2064,2064,2064
15382,2205,2205,2205
15383,2302,2302,2302
15385,2199,2199,2199
15386,2053,2053,2053
15387,1883,1883,1883
15388,1687,1687,1687
15389,1488,1488,1488
15390,1310,1310,1310
15391,1173,1173,1173
15392,1074,1074,1074
15393,1040,1040,1040
15394,1059,1059,1059
15403,1271,1271,1271
15404,1338,1338,1338
15405,1638,1638,1638
15406,1811,1811,1811
15407,1982,1982,1982
15408,2130,2130,2130
15409,2236,2236,2236
15410,2285,2285,2285
15411,2279,2279,2279
15412,2210,2210,2210
15415,1066,1066,1066
15416,1084,1084,1084
15417,1163,1163,1163
15418,1291,1291,1291
15419,1460,1460,1460
15420,1649,1649,1649
15421,1829,1829,1829
15422,1995,1995,1995
15423,2128,2128,2128
15424,2219,2219,2219
15426,2032,2032,2032
15427,1877,1877,1877
15428,1694,1694,1694
15429,1509,1509,1509
15430,1340,1340,1340
15431,1197,1197,1197
15432,1095,1095,1095
15433,1049,1049,1049
15434,1065,1065,1065
15435,1136,1136,1136
15437,1431,1431,1431
15438,1632,1632,1632
15439,1812,1812,1812
15440,1981,1981,1981
15441,2130,2130,2130
15442,2227,2227,2227
15443,2271,2271,2271
15444,2259,2259,2259
15445,2191,2191,2191
15446,2064,2064,2064
15451,1712,1712,1712
15452,1626,1626,1626
15453,1338,1338,1338
15454,1212,1212,1212
15455,1124,1124,1124
15456,1089,1089,1089
15457,1104,1104,1104
15458,1177,1177,1177
15459,1299,1299,1299
15460,1456,1456,1456
15463,2113,2113,2113
15464,2160,2160,2160
15465,2230,2230,2230
15466,2213,2213,2213
15467,2139,2139,2139
15468,2007,2007,2007
15469,1847,1847,1847
15470,1662,1662,1662
15471,1476,1476,1476
15472,1301,1301,1301
15474,1045,1045,1045
15475,1076,1076,1076
15476,1266,1266,1266
15477,1426,1426,1426
15478,1621,1621,1621
15479,1807,1807,1807
15480,1972,1972,1972
15481,2115,2115,2115
15482,2202,2202,2202
15483,2233,2233,2233
15485,2125,2125,2125
15486,1982,1982,1982
15487,1819,1819,1819
15488,1733,1733,1733
15489,1424,1424,1424
15490,1234,1234,1234
15491,1098,1098,1098
15492,993,993,993
15493,949,949,949
15494,976,976,976
15496,1187,1187,1187
15497,1360,1360,1360
15498,1553,1553,1553
15499,1741,1741,1741
15500,1913,1913,1913
15501,1981,1981,1981
15502,2163,2163,2163
15503,2214,2214,2214
15504,2206,2206,2206
15505,2137,2137,2137
15515,1851,1851,1851
15516,1659,1659,1659
15517,1461,1461,1461
15518,1269,1269,1269
15519,1126,1126,1126
15520,1015,1015,1015
15521,966,966,966
15522,958,958,958
15523,1053,1053,1053
15524,1178,1178,1178
15526,2109,2109,2109
15527,1990,1990,1990
15528,1925,1925,1925
15529,1646,1646,1646
15530,1457,1457,1457
15531,1290,1290,1290
15532,1149,1149,1149
15533,1045,1045,1045
15534,982,982,982
15535,990,990,990
15537,1344,1344,1344
15538,1526,1526,1526
15539,1710,1710,1710
15540,1785,1785,1785
15541,2017,2017,2017
15542,2117,2117,2117
15543,2163,2163,2163
15544,2148,2148,2148
15545,2086,2086,2086
15546,1956,1956,1956
15548,1609,1609,1609
15549,1423,1423,1423
15550,1243,1243,1243
15551,1098,1098,1098
15552,985,985,985
15553,953,953,953
15554,937,937,937
15555,998,998,998
15556,1127,1127,1127
15557,1287,1287,1287
15560,1671,1671,1671
15561,1865,1865,1865
15562,2016,2016,2016
15563,2123,2123,2123
15564,2163,2163,2163
15565,2154,2154,2154
15566,2089,2089,2089
15567,2022,2022,2022
15568,1787,1787,1787
15569,1610,1610,1610
15572,1248,1248,1248
15573,1109,1109,1109
15574,1006,1006,1006
15575,960,960,960
15576,961,961,961
15577,1010,1010,1010
15578,1115,1115,1115
15579,1253,1253,1253
15580,1415,1415,1415
15581,1499,1499,1499
15592,2005,2005,2005
15593,1974,1974,1974
15594,1902,1902,1902
15595,1745,1745,1745
15596,1578,1578,1578
15597,1367,1367,1367
15598,1197,1197,1197
15599,1053,1053,1053
15600,916,916,916
15601,869,869,869
15604,2061,2061,2061
15605,2108,2108,2108
15606,2092,2092,2092
15607,2065,2065,2065
15608,1903,1903,1903
15609,1748,1748,1748
15610,1566,1566,1566
15611,1377,1377,1377
15612,1191,1191,1191
15613,1023,1023,1023
15615,880,880,880
15616,962,962,962
15617,1111,1111,1111
15618,1291,1291,1291
15619,1376,1376,1376
15620,1696,1696,1696
15621,1884,1884,1884
15622,2033,2033,2033
15623,2145,2145,2145
15624,2195,2195,2195
15627,1962,1962,1962
15628,1794,1794,1794
15629,1610,1610,1610
15630,1404,1404,1404
15631,1223,1223,1223
15632,1154,1154,1154
15633,959,959,959
15634,911,911,911
15635,921,921,921
15636,986,986,986
15639,1279,1279,1279
15640,1468,1468,1468
15641,1649,1649,1649
15642,1826,1826,1826
15643,1974,1974,1974
15644,2097,2097,2097
15645,2150,2150,2150
15646,2157,2157,2157
15647,2083,2083,2083
15648,1953,1953,1953
15650,1391,1391,1391
15651,1193,1193,1193
15652,1017,1017,1017
15653,899,899,899
15654,842,842,842
15655,843,843,843
15656,898,898,898
15657,999,999,999
15658,1056,1056,1056
15659,1328,1328,1328
15661,1783,1783,1783
15662,1894,1894,1894
15663,1941,1941,1941
15664,1930,1930,1930
15665,1858,1858,1858
15666,1727,1727,1727
15667,1557,1557,1557
15668,1360,1360,1360
15669,1168,1168,1168
15670,1086,1086,1086
15679,736,736,736
15680,703,703,703
15681,716,716,716
15682,784,784,784
15683,907,907,907
15684,1079,1079,1079
15685,1299,1299,1299
15686,1535,1535,1535
15687,1761,1761,1761
15688,1950,1950,1950
15691,1426,1426,1426
15692,1232,1232,1232
15693,1078,1078,1078
15694,962,962,962
15695,906,906,906
15696,911,911,911
15697,977,977,977
15698,1035,1035,1035
15699,1285,1285,1285
15700,1485,1485,1485
15704,2134,2134,2134
15705,2183,2183,2183
15706,2179,2179,2179
15707,2117,2117,2117
15708,1989,1989,1989
15709,1834,1834,1834
15710,1630,1630,1630
15711,1526,1526,1526
15712,1235,1235,1235
15713,1083,1083,1083
15716,976,976,976
15717,1093,1093,1093
15718,1257,1257,1257
15719,1455,1455,1455
15720,1648,1648,1648
15721,1832,1832,1832
15722,1981,1981,1981
15723,2029,2029,2029
15724,2134,2134,2134
15725,2128,2128,2128
15728,1785,1785,1785
15729,1591,1591,1591
15730,1394,1394,1394
15731,1202,1202,1202
15732,1039,1039,1039
15733,909,909,909
15734,839,839,839
15735,834,834,834
15736,850,850,850
15737,1009,1009,1009
15739,1387,1387,1387
15740,1579,1579,1579
15741,1765,1765,1765
15742,1920,1920,1920
15743,2041,2041,2041
15744,2086,2086,2086
15745,2062,2062,2062
15746,1968,1968,1968
15747,1826,1826,1826
15748,1644,1644,1644
15756,1005,1005,1005
15757,839,839,839
15758,719,719,719
15759,656,656,656
15760,752,752,752
15761,759,759,759
15762,888,888,888
15763,1088,1088,1088
15764,1310,1310,1310
15765,1521,1521,1521
15771,1890,1890,1890
15772,1729,1729,1729
15773,1535,1535,1535
15774,1406,1406,1406
15775,1238,1238,1238
15776,1090,1090,1090
15777,966,966,966
15778,901,901,901
15779,895,895,895
15780,961,961,961
15782,1933,1933,1933
15783,2032,2032,2032
15784,2077,2077,2077
15785,2042,2042,2042
15786,1951,1951,1951
15787,1795,1795,1795
15788,1718,1718,1718
15789,1370,1370,1370
15790,1153,1153,1153
15791,940,940,940
15796,560,560,560
15797,550,550,550
15798,609,609,609
15799,729,729,729
15800,881,881,881
15801,1086,1086,1086
15802,1285,1285,1285
15803,1367,1367,1367
15804,1648,1648,1648
15805,1776,1776,1776
15809,1475,1475,1475
15810,1280,1280,1280
15811,1095,1095,1095
15812,902,902,902
15813,752,752,752
15814,645,645,645
15815,614,614,614
15816,592,592,592
15817,647,647,647
15818,765,765,765
15820,1312,1312,1312
15821,1497,1497,1497
15822,1661,1661,1661
15823,1776,1776,1776
15824,1837,1837,1837
15825,1841,1841,1841
15826,1776,1776,1776
15827,1732,1732,1732
15828,1488,1488,1488
15829,1296,1296,1296
15831,763,763,763
15832,656,656,656
15833,620,620,620
15834,624,624,624
15835,695,695,695
15836,835,835,835
15837,1010,1010,1010
15838,1227,1227,1227
15839,1328,1328,1328
15840,1629,1629,1629
15842,1878,1878,1878
15843,1919,1919,1919
15844,1904,1904,1904
15845,1833,1833,1833
15846,1696,1696,1696
15847,1522,1522,1522
15848,1328,1328,1328
15849,1138,1138,1138
15850,970,970,970
15851,827,827,827
15854,686,686,686
15855,687,687,687
15856,751,751,751
15857,867,867,867
15858,1037,1037,1037
15859,1230,1230,1230
15860,1429,1429,1429
15861,1622,1622,1622
15862,1777,1777,1777
15863,1894,1894,1894
15865,1958,1958,1958
15866,1926,1926,1926
15867,1721,1721,1721
15868,1559,1559,1559
15869,1338,1338,1338
15870,1115,1115,1115
15871,907,907,907
15872,739,739,739
15873,623,623,623
15874,563,563,563
15883,724,724,724
15884,880,880,880
15885,987,987,987
15886,1297,1297,1297
15887,1485,1485,1485
15888,1646,1646,1646
15889,1780,1780,1780
15890,1886,1886,1886
15891,1925,1925,1925
15892,1901,1901,1901
15895,795,795,795
15896,778,778,778
15897,825,825,825
15898,925,925,925
15899,1074,1074,1074
15900,1242,1242,1242
15901,1406,1406,1406
15902,1573,1573,1573
15903,1709,1709,1709
15904,1808,1808,1808
15907,1639,1639,1639
15908,1471,1471,1471
15909,1269,1269,1269
15910,1072,1072,1072
15911,865,865,865
15912,703,703,703
15913,586,586,586
15914,531,531,531
15915,533,533,533
15916,603,603,603
15921,1118,1118,1118
15922,1310,1310,1310
15923,1519,1519,1519
15924,1694,1694,1694
15925,1821,1821,1821
15926,1895,1895,1895
15927,1890,1890,1890
15928,1819,1819,1819
15929,1685,1685,1685
15930,1519,1519,1519
15935,771,771,771
15936,664,664,664
15937,611,611,611
15938,627,627,627
15939,693,693,693
15940,827,827,827
15941,1002,1002,1002
15942,1207,1207,1207
15943,1410,1410,1410
15944,1613,1613,1613
15947,1917,1917,1917
15948,1801,1801,1801
15949,1628,1628,1628
15950,1422,1422,1422
15951,1230,1230,1230
15952,1023,1023,1023
15953,860,860,860
15954,742,742,742
15955,688,688,688
15956,690,690,690
15959,1279,1279,1279
15960,1479,1479,1479
15961,1687,1687,1687
15962,1853,1853,1853
15963,1989,1989,1989
15964,2069,2069,2069
15965,2069,2069,2069
15966,2000,2000,2000
15967,1878,1878,1878
15968,1702,1702,1702
15970,1072,1072,1072
15971,915,915,915
15972,799,799,799
15973,742,742,742
15974,752,752,752
15975,819,819,819
15976,960,960,960
15977,1138,1138,1138
15978,1353,1353,1353
15979,1561,1561,1561
15981,1922,1922,1922
15982,1971,1971,1971
15983,2103,2103,2103
15984,2101,2101,2101
15985,2046,2046,2046
15986,1927,1927,1927
15987,1762,1762,1762
15988,1566,1566,1566
15989,1361,1361,1361
15990,1173,1173,1173
15993,902,902,902
15994,848,848,848
15995,855,855,855
15996,893,893,893
15997,1082,1082,1082
15998,1253,1253,1253
15999,1455,1455,1455
16000,1650,1650,1650
16001,1854,1854,1854
16002,2019,2019,2019
16005,2222,2222,2222
16006,2224,2224,2224
16007,2166,2166,2166
16008,2054,2054,2054
16009,1872,1872,1872
16010,1779,1779,1779
16011,1446,1446,1446
16012,1242,1242,1242
16013,1086,1086,1086
16014,958,958,958
16018,1109,1109,1109
16019,1284,1284,1284
16020,1495,1495,1495
16021,1711,1711,1711
16022,1916,1916,1916
16023,2001,2001,2001
16024,2224,2224,2224
16025,2288,2288,2288
16026,2299,2299,2299
16027,2241,2241,2241
16029,1776,1776,1776
16030,1584,1584,1584
16031,1389,1389,1389
16032,1226,1226,1226
16033,1104,1104,1104
16034,1038,1038,1038
16035,1020,1020,1020
16036,1096,1096,1096
16037,1218,1218,1218
16038,1385,1385,1385
16041,1984,1984,1984
16042,2162,2162,2162
16043,2290,2290,2290
16044,2347,2347,2347
16045,2351,2351,2351
16046,2287,2287,2287
16047,2179,2179,2179
16048,2107,2107,2107
16049,1823,1823,1823
16050,1648,1648,1648
16053,1327,1327,1327
16054,1189,1189,1189
16055,1129,1129,1129
16056,1121,1121,1121
16057,1181,1181,1181
16058,1296,1296,1296
16059,1455,1455,1455
16060,1654,1654,1654
16061,1847,1847,1847
16062,1937,1937,1937
16064,2448,2448,2448
16065,2384,2384,2384
16066,2267,2267,2267
16067,2113,2113,2113
16068,1917,1917,1917
16069,1712,1712,1712
16070,1509,1509,1509
16071,1344,1344,1344
16072,1215,1215,1215
16073,1178,1178,1178
16075,1195,1195,1195
16076,1308,1308,1308
16077,1472,1472,1472
16078,1671,1671,1671
16079,1872,1872,1872
16080,2071,2071,2071
16081,2243,2243,2243
16082,2382,2382,2382
16083,2451,2451,2451
16084,2463,2463,2463
16086,2141,2141,2141
16087,1941,1941,1941
16088,1743,1743,1743
16089,1535,1535,1535
16090,1360,1360,1360
16091,1225,1225,1225
16092,1151,1151,1151
16093,1136,1136,1136
16094,1189,1189,1189
16095,1309,1309,1309
16098,1472,1472,1472
16099,1680,1680,1680
16100,1763,1763,1763
16101,2131,2131,2131
16102,2289,2289,2289
16103,2423,2423,2423
16104,2502,2502,2502
16105,2524,2524,2524
16106,2467,2467,2467
16107,2352,2352,2352
16110,2000,2000,2000
16111,1793,1793,1793
16112,1599,1599,1599
16113,1427,1427,1427
16114,1365,1365,1365
16115,1234,1234,1234
16116,1232,1232,1232
16117,1286,1286,1286
16118,1397,1397,1397
16119,1562,1562,1562
16125,2311,2311,2311
16126,2429,2429,2429
16127,2498,2498,2498
16128,2499,2499,2499
16129,2482,2482,2482
16130,2335,2335,2335
16131,2188,2188,2188
16132,1982,1982,1982
16133,1779,1779,1779
16134,1573,1573,1573
16136,1219,1219,1219
16137,1342,1342,1342
16138,1520,1520,1520
16139,1616,1616,1616
16140,1955,1955,1955
16141,2173,2173,2173
16142,2332,2332,2332
16143,2448,2448,2448
16144,2515,2515,2515
16145,2523,2523,2523
16148,2173,2173,2173
16149,1957,1957,1957
16150,1763,1763,1763
16151,1557,1557,1557
16152,1475,1475,1475
16153,1249,1249,1249
16154,1180,1180,1180
16155,1173,1173,1173
16156,1232,1232,1232
16157,1351,1351,1351
16160,1938,1938,1938
16161,2139,2139,2139
16162,2297,2297,2297
16163,2411,2411,2411
16164,2474,2474,2474
16165,2476,2476,2476
16166,2403,2403,2403
16167,2272,2272,2272
16168,2102,2102,2102
16169,1885,1885,1885
16172,1256,1256,1256
16173,1119,1119,1119
16174,1039,1039,1039
16175,1014,1014,1014
16176,1070,1070,1070
16177,1175,1175,1175
16178,1242,1242,1242
16179,1531,1531,1531
16180,1724,1724,1724
16181,1908,1908,1908
16190,2255,2255,2255
16191,2262,2262,2262
16192,2194,2194,2194
16193,2074,2074,2074
16194,1916,1916,1916
16195,1729,1729,1729
16196,1565,1565,1565
16197,1474,1474,1474
16198,1290,1290,1290
16199,1201,1201,1201
16202,2158,2158,2158
16203,2320,2320,2320
16204,2448,2448,2448
16205,2495,2495,2495
16206,2534,2534,2534
16207,2479,2479,2479
16208,2359,2359,2359
16209,2209,2209,2209
16210,2013,2013,2013
16211,1808,1808,1808
16213,1232,1232,1232
16214,1231,1231,1231
16215,1294,1294,1294
16216,1338,1338,1338
16217,1580,1580,1580
16218,1774,1774,1774
16219,1967,1967,1967
16220,2162,2162,2162
16221,2325,2325,2325
16222,2457,2457,2457
16228,2529,2529,2529
16229,2489,2489,2489
16230,2379,2379,2379
16231,2226,2226,2226
16232,2032,2032,2032
16233,1935,1935,1935
16234,1632,1632,1632
16235,1463,1463,1463
16236,1331,1331,1331
16237,1253,1253,1253
16240,1792,1792,1792
16241,1998,1998,1998
16242,2205,2205,2205
16243,2380,2380,2380
16244,2443,2443,2443
16245,2609,2609,2609
16246,2631,2631,2631
16247,2582,2582,2582
16248,2462,2462,2462
16249,2299,2299,2299
16253,1766,1766,1766
16254,1618,1618,1618
16255,1490,1490,1490
16256,1424,1424,1424
16257,1423,1423,1423
16258,1447,1447,1447
16259,1626,1626,1626
16260,1776,1776,1776
16261,1971,1971,1971
16262,2173,2173,2173
16264,2704,2704,2704
16265,2708,2708,2708
16266,2650,2650,2650
16267,2522,2522,2522
16268,2342,2342,2342
16269,2255,2255,2255
16270,1930,1930,1930
16271,1727,1727,1727
16272,1562,1562,1562
16273,1424,1424,1424
16276,1396,1396,1396
16277,1514,1514,1514
16278,1681,1681,1681
16279,1883,1883,1883
16280,2096,2096,2096
16281,2299,2299,2299
16282,2379,2379,2379
16283,2631,2631,2631
16284,2726,2726,2726
16285,2762,2762,2762
16287,2595,2595,2595
16288,2418,2418,2418
16289,2218,2218,2218
16290,1998,1998,1998
16291,1778,1778,1778
16292,1598,1598,1598
16293,1440,1440,1440
16294,1327,1327,1327
16295,1299,1299,1299
16296,1307,1307,1307
16300,1774,1774,1774
16301,1989,1989,1989
16302,2212,2212,2212
16303,2400,2400,2400
16304,2547,2547,2547
16305,2638,2638,2638
16306,2651,2651,2651
16307,2610,2610,2610
16308,2484,2484,2484
16309,2416,2416,2416
16312,1569,1569,1569
16313,1430,1430,1430
16314,1361,1361,1361
16315,1355,1355,1355
16316,1398,1398,1398
16317,1499,1499,1499
16318,1654,1654,1654
16319,1840,1840,1840
16320,2030,2030,2030
16321,2118,2118,2118
16325,2599,2599,2599
16326,2618,2618,2618
16327,2559,2559,2559
16328,2452,2452,2452
16329,2303,2303,2303
16330,2111,2111,2111
16331,1898,1898,1898
16332,1690,1690,1690
16333,1505,1505,1505
16334,1361,1361,1361
16336,1344,1344,1344
16337,1456,1456,1456
16338,1625,1625,1625
16339,1818,1818,1818
16340,2013,2013,2013
16341,2209,2209,2209
16342,2383,2383,2383
16343,2512,2512,2512
16344,2594,2594,2594
16345,2611,2611,2611
16347,2279,2279,2279
16348,2087,2087,2087
16349,1883,1883,1883
16350,1673,1673,1673
16351,1495,1495,1495
16352,1354,1354,1354
16353,1280,1280,1280
16354,1264,1264,1264
16355,1310,1310,1310
16356,1421,1421,1421
16359,1777,1777,1777
16360,1863,1863,1863
16361,2213,2213,2213
16362,2371,2371,2371
16363,2512,2512,2512
16364,2593,2593,2593
16365,2599,2599,2599
16366,2539,2539,2539
16367,2422,2422,2422
16368,2275,2275,2275
16370,1840,1840,1840
16371,1605,1605,1605
16372,1387,1387,1387
16373,1311,1311,1311
16374,1101,1101,1101
16375,1063,1063,1063
16376,1094,1094,1094
16377,1195,1195,1195
16378,1345,1345,1345
16379,1535,1535,1535
16387,2101,2101,2101
16388,2242,2242,2242
16389,2314,2314,2314
16390,2320,2320,2320
16391,2257,2257,2257
16392,2184,2184,2184
16393,2071,2071,2071
16394,1889,1889,1889
16395,1723,1723,1723
16396,1535,1535,1535
16399,1498,1498,1498
16400,1597,1597,1597
16401,1927,1927,1927
16402,2134,2134,2134
16403,2304,2304,2304
16404,2438,2438,2438
16405,2509,2509,2509
16406,2524,2524,2524
16407,2470,2470,2470
16408,2367,2367,2367
16532,1605,1605,1605
16533,1527,1527,1527
16534,1280,1280,1280
16535,1200,1200,1200
16536,1183,1183,1183
16537,1229,1229,1229
16538,1343,1343,1343
16539,1503,1503,1503
16540,1708,1708,1708
16541,1914,1914,1914
16543,2407,2407,2407
16544,2480,2480,2480
16545,2483,2483,2483
16546,2431,2431,2431
16547,2309,2309,2309
16548,2135,2135,2135
16549,1933,1933,1933
16550,1723,1723,1723
16551,1515,1515,1515
16552,1347,1347,1347
16554,1172,1172,1172
16555,1296,1296,1296
16556,1455,1455,1455
16557,1659,1659,1659
16558,1867,1867,1867
16559,2071,2071,2071
16560,2238,2238,2238
16561,2369,2369,2369
16562,2448,2448,2448
16563,2471,2471,2471
16565,2431,2431,2431
16566,2330,2330,2330
16567,2281,2281,2281
16568,1991,1991,1991
16569,1808,1808,1808
16570,1611,1611,1611
16571,1441,1441,1441
16572,1297,1297,1297
16573,1206,1206,1206
16574,1171,1171,1171
16581,1325,1325,1325
16582,1486,1486,1486
16583,1680,1680,1680
16584,1885,1885,1885
16585,1974,1974,1974
16586,2273,2273,2273
16587,2416,2416,2416
16588,2500,2500,2500
16589,2517,2517,2517
16590,2479,2479,2479
16595,1311,1311,1311
16596,1266,1266,1266
16597,1238,1238,1238
16598,1291,1291,1291
16599,1408,1408,1408
16600,1571,1571,1571
16601,1770,1770,1770
16602,1957,1957,1957
16603,2162,2162,2162
16604,2321,2321,2321
16607,2256,2256,2256
16608,2065,2065,2065
16609,1872,1872,1872
16610,1654,1654,1654
16611,1455,1455,1455
16612,1295,1295,1295
16613,1200,1200,1200
16614,1166,1166,1166
16615,1196,1196,1196
16616,1285,1285,1285
16618,1621,1621,1621
16619,1699,1699,1699
16620,2032,2032,2032
16621,2208,2208,2208
16622,2351,2351,2351
16623,2438,2438,2438
16624,2462,2462,2462
16625,2417,2417,2417
16626,2311,2311,2311
16627,2157,2157,2157
16631,1726,1726,1726
16632,1504,1504,1504
16633,1321,1321,1321
16634,1244,1244,1244
16635,1072,1072,1072
16636,1043,1043,1043
16637,1073,1073,1073
16638,1194,1194,1194
16639,1359,1359,1359
16640,1571,1571,1571
16644,2206,2206,2206
16645,2357,2357,2357
16646,2454,2454,2454
16647,2490,2490,2490
16648,2478,2478,2478
16649,2343,2343,2343
16650,2191,2191,2191
16651,1989,1989,1989
16652,1777,1777,1777
16653,1585,1585,1585
16656,1223,1223,1223
16657,1344,1344,1344
16658,1499,1499,1499
16659,1590,1590,1590
16660,1907,1907,1907
16661,2118,2118,2118
16662,2290,2290,2290
16663,2426,2426,2426
16664,2499,2499,2499
16665,2517,2517,2517
16667,2211,2211,2211
16668,2011,2011,2011
16669,1803,1803,1803
16670,1590,1590,1590
16671,1504,1504,1504
16672,1262,1262,1262
16673,1179,1179,1179
16674,1157,1157,1157
16675,1200,1200,1200
16676,1310,1310,1310
16678,1665,1665,1665
16679,1874,1874,1874
16680,2102,2102,2102
16681,2288,2288,2288
16682,2445,2445,2445
16683,2538,2538,2538
16684,2550,2550,2550
16685,2510,2510,2510
16686,2387,2387,2387
16687,2225,2225,2225
16690,1795,1795,1795
16691,1598,1598,1598
16692,1409,1409,1409
16693,1249,1249,1249
16694,1146,1146,1146
16695,1106,1106,1106
16696,1139,1139,1139
16697,1244,1244,1244
16698,1313,1313,1313
16699,1639,1639,1639
16702,2241,2241,2241
16703,2384,2384,2384
16704,2478,2478,2478
16705,2499,2499,2499
16706,2448,2448,2448
16707,2337,2337,2337
16708,2174,2174,2174
16709,1965,1965,1965
16710,1745,1745,1745
16711,1647,1647,1647
16713,1086,1086,1086
16714,1065,1065,1065
16715,1117,1117,1117
16716,1232,1232,1232
16717,1394,1394,1394
16718,1603,1603,1603
16719,1817,1817,1817
16720,2027,2027,2027
16721,2217,2217,2217
16722,2366,2366,2366
16724,2483,2483,2483
16725,2461,2461,2461
16726,2362,2362,2362
16727,2219,2219,2219
16728,2023,2023,2023
16729,1814,1814,1814
16730,1611,1611,1611
16731,1414,1414,1414
16732,1265,1265,1265
16733,1168,1168,1168
16737,1165,1165,1165
16738,1197,1197,1197
16739,1424,1424,1424
16740,1633,1633,1633
16741,1829,1829,1829
16742,2042,2042,2042
16743,2233,2233,2233
16744,2386,2386,2386
16745,2480,2480,2480
16746,2509,2509,2509
16749,2039,2039,2039
16750,1940,1940,1940
16751,1623,1623,1623
16752,1452,1452,1452
16753,1308,1308,1308
16754,1216,1216,1216
16755,1191,1191,1191
16756,1224,1224,1224
16757,1319,1319,1319
16758,1471,1471,1471
16760,2091,2091,2091
16761,2274,2274,2274
16762,2346,2346,2346
16763,2533,2533,2533
16764,2559,2559,2559
16765,2543,2543,2543
16766,2451,2451,2451
16767,2306,2306,2306
16768,2112,2112,2112
16769,1889,1889,1889
16771,1461,1461,1461
16772,1311,1311,1311
16773,1210,1210,1210
16774,1171,1171,1171
16775,1179,1179,1179
16776,1311,1311,1311
16777,1456,1456,1456
16778,1652,1652,1652
16779,1865,1865,1865
16780,2084,2084,2084
16783,2427,2427,2427
16784,2512,2512,2512
16785,2543,2543,2543
16786,2494,2494,2494
16787,2386,2386,2386
16788,2227,2227,2227
16789,2146,2146,2146
16790,1815,1815,1815
16791,1589,1589,1589
16792,1408,1408,1408
16795,1152,1152,1152
16796,1206,1206,1206
16797,1332,1332,1332
16798,1489,1489,1489
16799,1708,1708,1708
16800,1917,1917,1917
16801,2131,2131,2131
16802,2211,2211,2211
16803,2446,2446,2446
16804,2522,2522,2522
16806,2391,2391,2391
16807,2229,2229,2229
16808,2032,2032,2032
16809,1825,1825,1825
16810,1617,1617,1617
16811,1426,1426,1426
16812,1275,1275,1275
16813,1184,1184,1184
16814,1165,1165,1165
16815,1200,1200,1200
16817,1470,1470,1470
16818,1680,1680,1680
16819,1899,1899,1899
16820,2121,2121,2121
16821,2300,2300,2300
16822,2451,2451,2451
16823,2551,2551,2551
16824,2591,2591,2591
16825,2551,2551,2551
16826,2448,2448,2448
16828,2090,2090,2090
16829,1885,1885,1885
16830,1675,1675,1675
16831,1483,1483,1483
16832,1328,1328,1328
16833,1235,1235,1235
16834,1200,1200,1200
16835,1231,1231,1231
16836,1328,1328,1328
16837,1479,1479,1479
16848,1879,1879,1879
16849,1991,1991,1991
16850,2290,2290,2290
16851,2439,2439,2439
16852,2529,2529,2529
16853,2559,2559,2559
16854,2512,2512,2512
16855,2427,2427,2427
16856,2288,2288,2288
16857,2112,2112,2112
16859,1973,1973,1973
16860,2190,2190,2190
16861,2371,2371,2371
16862,2527,2527,2527
16863,2634,2634,2634
16864,2662,2662,2662
16865,2627,2627,2627
16866,2593,2593,2593
16867,2367,2367,2367
16868,2170,2170,2170
16870,1739,1739,1739
16871,1535,1535,1535
16872,1386,1386,1386
16873,1296,1296,1296
16874,1266,1266,1266
16875,1303,1303,1303
16876,1410,1410,1410
16877,1571,1571,1571
16878,1776,1776,1776
16879,1879,1879,1879
16881,2389,2389,2389
16882,2546,2546,2546
16883,2651,2651,2651
16884,2685,2685,2685
16885,2644,2644,2644
16886,2530,2530,2530
16887,2378,2378,2378
16888,2169,2169,2169
16889,1947,1947,1947
16890,1725,1725,1725
16893,1274,1274,1274
16894,1248,1248,1248
16895,1287,1287,1287
16896,1392,1392,1392
16897,1535,1535,1535
16898,1754,1754,1754
16899,1977,1977,1977
16900,2193,2193,2193
16901,2382,2382,2382
16902,2532,2532,2532
16905,2690,2690,2690
16906,2674,2674,2674
16907,2515,2515,2515
16908,2354,2354,2354
16909,2129,2129,2129
16910,1887,1887,1887
16911,1630,1630,1630
16912,1409,1409,1409
16913,1227,1227,1227
16914,1113,1113,1113
16921,1186,1186,1186
16922,1331,1331,1331
16923,1429,1429,1429
16924,1751,1751,1751
16925,1957,1957,1957
16926,2149,2149,2149
16927,2320,2320,2320
16928,2437,2437,2437
16929,2502,2502,2502
16930,2483,2483,2483
16934,1360,1360,1360
16935,1267,1267,1267
16936,1234,1234,1234
16937,1263,1263,1263
16938,1359,1359,1359
16939,1510,1510,1510
16940,1712,1712,1712
16941,1921,1921,1921
16942,2125,2125,2125
16943,2299,2299,2299
16945,2510,2510,2510
16946,2400,2400,2400
16947,2256,2256,2256
16948,2065,2065,2065
16949,1855,1855,1855
16950,1648,1648,1648
16951,1459,1459,1459
16952,1312,1312,1312
16953,1210,1210,1210
16954,1165,1165,1165
16956,1274,1274,1274
16957,1336,1336,1336
16958,1646,1646,1646
16959,1845,1845,1845
16960,2075,2075,2075
16961,2260,2260,2260
16962,2425,2425,2425
16963,2527,2527,2527
16964,2559,2559,2559
16965,2539,2539,2539
16968,2283,2283,2283
16969,2089,2089,2089
16970,1872,1872,1872
16971,1776,1776,1776
16972,1451,1451,1451
16973,1282,1282,1282
16974,1179,1179,1179
16975,1138,1138,1138
16976,1163,1163,1163
16977,1264,1264,1264
16980,1851,1851,1851
16981,2080,2080,2080
16982,2282,2282,2282
16983,2431,2431,2431
16984,2481,2481,2481
16985,2581,2581,2581
16986,2530,2530,2530
16987,2401,2401,2401
16988,2222,2222,2222
16989,1990,1990,1990
16991,1508,1508,1508
16992,1303,1303,1303
16993,1137,1137,1137
16994,1023,1023,1023
16995,976,976,976
16996,999,999,999
16997,1039,1039,1039
16998,1242,1242,1242
16999,1439,1439,1439
17000,1651,1651,1651
17011,2222,2222,2222
17012,2320,2320,2320
17013,2359,2359,2359
17014,2320,2320,2320
17015,2215,2215,2215
17016,2067,2067,2067
17017,1891,1891,1891
17018,1808,1808,1808
17019,1535,1535,1535
17020,1398,1398,1398
17023,2434,2434,2434
17024,2497,2497,2497
17025,2691,2691,2691
17026,2708,2708,2708
17027,2654,2654,2654
17028,2527,2527,2527
17029,2357,2357,2357
17030,2149,2149,2149
17031,1921,1921,1921
17032,1697,1697,1697
17036,1198,1198,1198
17037,1215,1215,1215
17038,1360,1360,1360
17039,1514,1514,1514
17040,1717,1717,1717
17041,1936,1936,1936
17042,2160,2160,2160
17043,2352,2352,2352
17044,2505,2505,2505
17045,2608,2608,2608
17048,2337,2337,2337
17049,2242,2242,2242
17050,1910,1910,1910
17051,1701,1701,1701
17052,1522,1522,1522
17053,1370,1370,1370
17054,1277,1277,1277
17055,1247,1247,1247
17056,1285,1285,1285
17057,1379,1379,1379
17059,1913,1913,1913
17060,2133,2133,2133
17061,2202,2202,2202
17062,2483,2483,2483
17063,2582,2582,2582
17064,2620,2620,2620
17065,2591,2591,2591
17066,2482,2482,2482
17067,2333,2333,2333
17068,2138,2138,2138
17072,1683,1683,1683
17073,1486,1486,1486
17074,1321,1321,1321
17075,1217,1217,1217
17076,1184,1184,1184
17077,1226,1226,1226
17078,1332,1332,1332
17079,1488,1488,1488
17080,1697,1697,1697
17081,1915,1915,1915
17084,2546,2546,2546
17085,2663,2663,2663
17086,2704,2704,2704
17087,2667,2667,2667
17088,2555,2555,2555
17089,2487,2487,2487
17090,2176,2176,2176
17091,1957,1957,1957
17092,1725,1725,1725
17093,1512,1512,1512
17095,1190,1190,1190
17096,1296,1296,1296
17097,1451,1451,1451
17098,1655,1655,1655
17099,1882,1882,1882
17100,1978,1978,1978
17101,2306,2306,2306
17102,2471,2471,2471
17103,2559,2559,2559
17104,2625,2625,2625
17107,2557,2557,2557
17108,2409,2409,2409
17109,2218,2218,2218
17110,2000,2000,2000
17111,1766,1766,1766
17112,1552,1552,1552
17113,1367,1367,1367
17114,1307,1307,1307
17115,1194,1194,1194
17116,1215,1215,1215
17118,1634,1634,1634
17119,1827,1827,1827
17120,2034,2034,2034
17121,2229,2229,2229
17122,2384,2384,2384
17123,2494,2494,2494
17124,2542,2542,2542
17125,2512,2512,2512
17126,2486,2486,2486
17127,2283,2283,2283
17135,1856,1856,1856
17136,1645,1645,1645
17137,1447,1447,1447
17138,1281,1281,1281
17139,1176,1176,1176
17140,1137,1137,1137
17141,1167,1167,1167
17142,1264,1264,1264
17143,1408,1408,1408
17144,1600,1600,1600
17149,2462,2462,2462
17150,2381,2381,2381
17151,2246,2246,2246
17152,2054,2054,2054
17153,1856,1856,1856
17154,1641,1641,1641
17155,1446,1446,1446
17156,1364,1364,1364
17157,1168,1168,1168
17158,1117,1117,1117
17160,1781,1781,1781
17161,2001,2001,2001
17162,2202,2202,2202
17163,2374,2374,2374
17164,2491,2491,2491
17165,2531,2531,2531
17166,2531,2531,2531
17167,2416,2416,2416
17168,2273,2273,2273
17169,2075,2075,2075
17171,1438,1438,1438
17172,1271,1271,1271
17173,1167,1167,1167
17174,1117,1117,1117
17175,1137,1137,1137
17176,1223,1223,1223
17177,1367,1367,1367
17178,1452,1452,1452
17179,1791,1791,1791
17180,2013,2013,2013
17183,2373,2373,2373
17184,2476,2476,2476
17185,2526,2526,2526
17186,2518,2518,2518
17187,2429,2429,2429
17188,2316,2316,2316
17189,2163,2163,2163
17190,1989,1989,1989
17191,1817,1817,1817
17192,1741,1741,1741
17195,1338,1338,1338
17196,1279,1279,1279
17197,1296,1296,1296
17198,1361,1361,1361
17199,1474,1474,1474
17200,1635,1635,1635
17201,1809,1809,1809
17202,1986,1986,1986
17203,2139,2139,2139
17204,2256,2256,2256
17211,2182,2182,2182
17212,2033,2033,2033
17213,1831,1831,1831
17214,1589,1589,1589
17215,1136,1136,1136
17216,1122,1122,1122
17217,979,979,979
17218,901,901,901
17219,889,889,889
17220,936,936,936
17222,2112,2112,2112
17223,2281,2281,2281
17224,2399,2399,2399
17225,2448,2448,2448
17226,2435,2435,2435
17227,2342,2342,2342
17228,2196,2196,2196
17229,2004,2004,2004
17230,1807,1807,1807
17231,1711,1711,1711
17234,1139,1139,1139
17235,1088,1088,1088
17236,1105,1105,1105
17237,1200,1200,1200
17238,1351,1351,1351
17239,1535,1535,1535
17240,1771,1771,1771
17241,1979,1979,1979
17242,2182,2182,2182
17243,2349,2349,2349
17246,2509,2509,2509
17247,2480,2480,2480
17248,2391,2391,2391
17249,2246,2246,2246
17250,2057,2057,2057
17251,1833,1833,1833
17252,1610,1610,1610
17253,1418,1418,1418
17254,1257,1257,1257
17255,1145,1145,1145
17362,1334,1334,1334
17363,1526,1526,1526
17364,1734,1734,1734
17365,1943,1943,1943
17366,2139,2139,2139
17367,2297,2297,2297
17368,2400,2400,2400
17369,2453,2453,2453
17370,2441,2441,2441
17371,2365,2365,2365
17373,1248,1248,1248
17374,1178,1178,1178
17375,1092,1092,1092
17376,1105,1105,1105
17377,1205,1205,1205
17378,1354,1354,1354
17379,1557,1557,1557
17380,1774,1774,1774
17381,1998,1998,1998
17382,2199,2199,2199
17384,2556,2556,2556
17385,2542,2542,2542
17386,2515,2515,2515
17387,2319,2319,2319
17388,2126,2126,2126
17389,1919,1919,1919
17390,1697,1697,1697
17391,1494,1494,1494
17392,1325,1325,1325
17393,1210,1210,1210
17395,1182,1182,1182
17396,1274,1274,1274
17397,1421,1421,1421
17398,1607,1607,1607
17399,1708,1708,1708
17400,2026,2026,2026
17401,2207,2207,2207
17402,2368,2368,2368
17403,2475,2475,2475
17404,2523,2523,2523
17413,2426,2426,2426
17414,2287,2287,2287
17415,2110,2110,2110
17416,1899,1899,1899
17417,1681,1681,1681
17418,1484,1484,1484
17419,1401,1401,1401
17420,1216,1216,1216
17421,1177,1177,1177
17422,1200,1200,1200
17424,2501,2501,2501
17425,2544,2544,2544
17426,2545,2545,2545
17427,2448,2448,2448
17428,2320,2320,2320
17429,2131,2131,2131
17430,1921,1921,1921
17431,1712,1712,1712
17432,1520,1520,1520
17433,1347,1347,1347
17435,1197,1197,1197
17436,1280,1280,1280
17437,1422,1422,1422
17438,1504,1504,1504
17439,1846,1846,1846
17440,2066,2066,2066
17441,2257,2257,2257
17442,2429,2429,2429
17443,2543,2543,2543
17444,2608,2608,2608
17450,2512,2512,2512
17451,2368,2368,2368
17452,2176,2176,2176
17453,1965,1965,1965
17454,1739,1739,1739
17455,1649,1649,1649
17456,1359,1359,1359
17457,1249,1249,1249
17458,1200,1200,1200
17459,1216,1216,1216
17462,2268,2268,2268
17463,2433,2433,2433
17464,2547,2547,2547
17465,2559,2559,2559
17466,2599,2599,2599
17467,2506,2506,2506
17468,2362,2362,2362
17469,2166,2166,2166
17470,1945,1945,1945
17471,1716,1716,1716
17473,1206,1206,1206
17474,1153,1153,1153
17475,1168,1168,1168
17476,1258,1258,1258
17477,1311,1311,1311
17478,1606,1606,1606
17479,1814,1814,1814
17480,2040,2040,2040
17481,2244,2244,2244
17482,2407,2407,2407
17484,2559,2559,2559
17485,2559,2559,2559
17486,2481,2481,2481
17487,2345,2345,2345
17488,2159,2159,2159
17489,1936,1936,1936
17490,1845,1845,1845
17491,1510,1510,1510
17492,1334,1334,1334
17493,1212,1212,1212
17495,1165,1165,1165
17496,1247,1247,1247
17497,1392,1392,1392
17498,1583,1583,1583
17499,1789,1789,1789
17500,2002,2002,2002
17501,2202,2202,2202
17502,2378,2378,2378
17503,2432,2432,2432
17504,2559,2559,2559
17507,2490,2490,2490
17508,2363,2363,2363
17509,2180,2180,2180
17510,1968,1968,1968
17511,1732,1732,1732
17512,1506,1506,1506
17513,1325,1325,1325
17514,1191,1191,1191
17515,1125,1125,1125
17516,1135,1135,1135
17519,1552,1552,1552
17520,1738,1738,1738
17521,1942,1942,1942
17522,2128,2128,2128
17523,2275,2275,2275
17524,2367,2367,2367
17525,2394,2394,2394
17526,2354,2354,2354
17527,2251,2251,2251
17528,2096,2096,2096
17536,1423,1423,1423
17537,1234,1234,1234
17538,1066,1066,1066
17539,944,944,944
17540,895,895,895
17541,912,912,912
17542,1047,1047,1047
17543,1238,1238,1238
17544,1463,1463,1463
17545,1703,1703,1703
17548,2422,2422,2422
17549,2287,2287,2287
17550,2092,2092,2092
17551,1885,1885,1885
17552,1664,1664,1664
17553,1456,1456,1456
17554,1285,1285,1285
17555,1165,1165,1165
17556,1104,1104,1104
17557,1104,1104,1104
17559,1731,1731,1731
17560,1951,1951,1951
17561,2149,2149,2149
17562,2320,2320,2320
17563,2448,2448,2448
17564,2517,2517,2517
17565,2513,2513,2513
17566,2448,2448,2448
17567,2314,2314,2314
17568,2240,2240,2240
17570,1658,1658,1658
17571,1441,1441,1441
17572,1257,1257,1257
17573,1131,1131,1131
17574,1066,1066,1066
17575,1071,1071,1071
17576,1151,1151,1151
17577,1299,1299,1299
17578,1499,1499,1499
17579,1725,1725,1725
17582,2352,2352,2352
17583,2458,2458,2458
17584,2517,2517,2517
17585,2509,2509,2509
17586,2417,2417,2417
17587,2284,2284,2284
17588,2095,2095,2095
17589,1872,1872,1872
17590,1635,1635,1635
17591,1439,1439,1439
17595,1271,1271,1271
17596,1152,1152,1152
17597,1136,1136,1136
17598,1151,1151,1151
17599,1242,1242,1242
17600,1392,1392,1392
17601,1597,1597,1597
17602,1821,1821,1821
17603,2064,2064,2064
17604,2249,2249,2249
17606,2439,2439,2439
17607,2333,2333,2333
17608,2269,2269,2269
17609,1948,1948,1948
17610,1726,1726,1726
17611,1483,1483,1483
17612,1277,1277,1277
17613,1099,1099,1099
17614,966,966,966
17615,914,914,914
17624,1175,1175,1175
17625,1379,1379,1379
17626,1604,1604,1604
17627,1718,1718,1718
17628,2047,2047,2047
17629,2224,2224,2224
17630,2356,2356,2356
17631,2479,2479,2479
17632,2512,2512,2512
17633,2475,2475,2475
17636,1232,1232,1232
17637,1240,1240,1240
17638,1324,1324,1324
17639,1447,1447,1447
17640,1629,1629,1629
17641,1828,1828,1828
17642,2035,2035,2035
17643,2233,2233,2233
17644,2384,2384,2384
17645,2493,2493,2493
17647,2304,2304,2304
17648,2106,2106,2106
17649,1907,1907,1907
17650,1680,1680,1680
17651,1470,1470,1470
17652,1286,1286,1286
17653,1164,1164,1164
17654,1097,1097,1097
17655,1104,1104,1104
17656,1177,1177,1177
17662,1520,1520,1520
17663,1639,1639,1639
17664,2010,2010,2010
17665,2205,2205,2205
17666,2390,2390,2390
17667,2524,2524,2524
17668,2608,2608,2608
17669,2606,2606,2606
17670,2518,2518,2518
17671,2381,2381,2381
17679,1200,1200,1200
17680,1142,1142,1142
17681,1152,1152,1152
17682,1232,1232,1232
17683,1379,1379,1379
17684,1582,1582,1582
17685,1807,1807,1807
17686,2031,2031,2031
17687,2240,2240,2240
17688,2416,2416,2416
17690,1946,1946,1946
17691,1726,1726,1726
17692,1520,1520,1520
17693,1345,1345,1345
17694,1225,1225,1225
17695,1166,1166,1166
17696,1168,1168,1168
17697,1257,1257,1257
17698,1398,1398,1398
17699,1476,1476,1476
17701,2256,2256,2256
17702,2428,2428,2428
17703,2544,2544,2544
17704,2610,2610,2610
17705,2608,2608,2608
17706,2524,2524,2524
17707,2391,2391,2391
17708,2202,2202,2202
17709,1985,1985,1985
17710,1749,1749,1749
17712,1331,1331,1331
17713,1210,1210,1210
17714,1161,1161,1161
17715,1179,1179,1179
17716,1266,1266,1266
17717,1413,1413,1413
17718,1616,1616,1616
17719,1836,1836,1836
17720,2066,2066,2066
17721,2272,2272,2272
17724,2593,2593,2593
17725,2636,2636,2636
17726,2667,2667,2667
17727,2580,2580,2580
17728,2434,2434,2434
17729,2235,2235,2235
17730,2007,2007,2007
17731,1763,1763,1763
17732,1535,1535,1535
17733,1353,1353,1353
17736,1136,1136,1136
17737,1140,1140,1140
17738,1218,1218,1218
17739,1273,1273,1273
17740,1522,1522,1522
17741,1710,1710,1710
17742,1904,1904,1904
17743,2093,2093,2093
17744,2244,2244,2244
17745,2346,2346,2346
17753,2145,2145,2145
17754,1948,1948,1948
17755,1725,1725,1725
17756,1615,1615,1615
17757,1269,1269,1269
17758,1114,1114,1114
17759,1023,1023,1023
17760,982,982,982
17761,1011,1011,1011
17762,1113,1113,1113
17765,2548,2548,2548
17766,2545,2545,2545
17767,2465,2465,2465
17768,2336,2336,2336
17769,2157,2157,2157
17770,1934,1934,1934
17771,1712,1712,1712
17772,1502,1502,1502
17773,1325,1325,1325
17774,1197,1197,1197
17776,1354,1354,1354
17777,1553,1553,1553
17778,1770,1770,1770
17779,1983,1983,1983
17780,2183,2183,2183
17781,2355,2355,2355
17782,2484,2484,2484
17783,2550,2550,2550
17784,2539,2539,2539
17785,2461,2461,2461
17787,2321,2321,2321
17788,2133,2133,2133
17789,2058,2058,2058
17790,1682,1682,1682
17791,1479,1479,1479
17792,1306,1306,1306
17793,1176,1176,1176
17794,1103,1103,1103
17795,1102,1102,1102
17796,1168,1168,1168
17873,1475,1475,1475
17874,1691,1691,1691
17875,1908,1908,1908
17876,2113,2113,2113
17877,2201,2201,2201
17878,2416,2416,2416
17879,2470,2470,2470
17880,2463,2463,2463
17881,2393,2393,2393
17882,2273,2273,2273
17884,2498,2498,2498
17885,2559,2559,2559
17886,2590,2590,2590
17887,2523,2523,2523
17888,2407,2407,2407
17889,2235,2235,2235
17890,2023,2023,2023
17891,1791,1791,1791
17892,1571,1571,1571
17893,1366,1366,1366
17895,1136,1136,1136
17896,1211,1211,1211
17897,1338,1338,1338
17898,1531,1531,1531
17899,1765,1765,1765
17900,1998,1998,1998
17901,2219,2219,2219
17902,2401,2401,2401
17903,2537,2537,2537
17904,2608,2608,2608
17906,2389,2389,2389
17907,2202,2202,2202
17908,1984,1984,1984
17909,1745,1745,1745
17910,1520,1520,1520
17911,1328,1328,1328
17912,1189,1189,1189
17913,1125,1125,1125
17914,1127,1127,1127
17915,1204,1204,1204
17918,1344,1344,1344
17919,1535,1535,1535
17920,1629,1629,1629
17921,2007,2007,2007
17922,2203,2203,2203
17923,2383,2383,2383
17924,2497,2497,2497
17925,2559,2559,2559
17926,2559,2559,2559
17927,2502,2502,2502
17930,2036,2036,2036
17931,1811,1811,1811
17932,1599,1599,1599
17933,1506,1506,1506
17934,1261,1261,1261
17935,1175,1175,1175
17936,1165,1165,1165
17937,1220,1220,1220
17938,1344,1344,1344
17939,1520,1520,1520
17941,2158,2158,2158
17942,2341,2341,2341
17943,2467,2467,2467
17944,2536,2536,2536
17945,2543,2543,2543
17946,2460,2460,2460
17947,2333,2333,2333
17948,2147,2147,2147
17949,1927,1927,1927
17950,1703,1703,1703
17952,1313,1313,1313
17953,1184,1184,1184
17954,1117,1117,1117
17955,1105,1105,1105
17956,1171,1171,1171
17957,1298,1298,1298
17958,1372,1372,1372
17959,1692,1692,1692
17960,1923,1923,1923
17961,2111,2111,2111
17964,2407,2407,2407
17965,2480,2480,2480
17966,2482,2482,2482
17967,2417,2417,2417
17968,2291,2291,2291
17969,2110,2110,2110
17970,1889,1889,1889
17971,1649,1649,1649
17972,1535,1535,1535
17973,1222,1222,1222
17976,1005,1005,1005
17977,1008,1008,1008
17978,1087,1087,1087
17979,1218,1218,1218
17980,1414,1414,1414
17981,1635,1635,1635
17982,1868,1868,1868
17983,2096,2096,2096
17984,2279,2279,2279
17985,2413,2413,2413
17988,2253,2253,2253
17989,2034,2034,2034
17990,1797,1797,1797
17991,1524,1524,1524
17992,1276,1276,1276
17993,1053,1053,1053
17994,891,891,891
17995,790,790,790
17996,770,770,770
17997,831,831,831
18006,1353,1353,1353
18007,1585,1585,1585
18008,1795,1795,1795
18009,1969,1969,1969
18010,2111,2111,2111
18011,2186,2186,2186
18012,2206,2206,2206
18013,2169,2169,2169
18014,2064,2064,2064
18015,1891,1891,1891
18017,1015,1015,1015
18018,1153,1153,1153
18019,1338,1338,1338
18020,1563,1563,1563
18021,1790,1790,1790
18022,1999,1999,1999
18023,2186,2186,2186
18024,2245,2245,2245
18025,2390,2390,2390
18026,2393,2393,2393
18029,2016,2016,2016
18030,1823,1823,1823
18031,1594,1594,1594
18032,1382,1382,1382
18033,1191,1191,1191
18034,1038,1038,1038
18035,944,944,944
18036,926,926,926
18037,944,944,944
18038,1104,1104,1104
18040,1499,1499,1499
18041,1739,1739,1739
18042,1957,1957,1957
18043,2160,2160,2160
18044,2302,2302,2302
18045,2384,2384,2384
18046,2392,2392,2392
18047,2325,2325,2325
18048,2206,2206,2206
18049,2025,2025,2025
18051,1363,1363,1363
18052,1189,1189,1189
18053,1062,1062,1062
18054,990,990,990
18055,986,986,986
18056,1056,1056,1056
18057,1185,1185,1185
18058,1376,1376,1376
18059,1597,1597,1597
18060,1822,1822,1822
18071,2350,2350,2350
18072,2416,2416,2416
18073,2417,2417,2417
18074,2356,2356,2356
18075,2227,2227,2227
18076,2045,2045,2045
18077,1837,1837,1837
18078,1605,1605,1605
18079,1390,1390,1390
18080,1200,1200,1200
18082,2032,2032,2032
18083,2219,2219,2219
18084,2357,2357,2357
18085,2433,2433,2433
18086,2445,2445,2445
18087,2379,2379,2379
18088,2254,2254,2254
18089,2175,2175,2175
18090,1840,1840,1840
18091,1609,1609,1609
18093,1073,1073,1073
18094,987,987,987
18095,985,985,985
18096,1056,1056,1056
18097,1184,1184,1184
18098,1365,1365,1365
18099,1585,1585,1585
18100,1812,1812,1812
18101,1910,1910,1910
18102,2231,2231,2231
18104,2449,2449,2449
18105,2462,2462,2462
18106,2395,2395,2395
18107,2266,2266,2266
18108,2078,2078,2078
18109,1856,1856,1856
18110,1623,1623,1623
18111,1408,1408,1408
18112,1219,1219,1219
18113,1078,1078,1078
18116,993,993,993
18117,1073,1073,1073
18118,1201,1201,1201
18119,1392,1392,1392
18120,1613,1613,1613
18121,1838,1838,1838
18122,2064,2064,2064
18123,2252,2252,2252
18124,2395,2395,2395
18125,2474,2474,2474
18128,2413,2413,2413
18129,2350,2350,2350
18130,2047,2047,2047
18131,1842,1842,1842
18132,1584,1584,1584
18133,1329,1329,1329
18134,1107,1107,1107
18135,938,938,938
18136,833,833,833
18137,803,803,803
18149,1363,1363,1363
18150,1476,1476,1476
18151,1823,1823,1823
18152,2000,2000,2000
18153,2129,2129,2129
18154,2213,2213,2213
18155,2241,2241,2241
18156,2206,2206,2206
18157,2158,2158,2158
18158,2012,2012,2012
18162,1563,1563,1563
18163,1793,1793,1793
18164,2007,2007,2007
18165,2206,2206,2206
18166,2343,2343,2343
18167,2421,2421,2421
18168,2422,2422,2422
18169,2403,2403,2403
18170,2218,2218,2218
18171,2033,2033,2033
18174,998,998,998
18175,902,902,902
18176,895,895,895
18177,960,960,960
18178,1090,1090,1090
18179,1280,1280,1280
18180,1392,1392,1392
18181,1760,1760,1760
18182,1962,1962,1962
18183,2160,2160,2160
18185,2357,2357,2357
18186,2291,2291,2291
18187,2167,2167,2167
18188,1988,1988,1988
18189,1775,1775,1775
18190,1531,1531,1531
18191,1318,1318,1318
18192,1229,1229,1229
18193,983,983,983
18194,903,903,903
18197,966,966,966
18198,1097,1097,1097
18199,1290,1290,1290
18200,1510,1510,1510
18201,1751,1751,1751
18202,1975,1975,1975
18203,2191,2191,2191
18204,2338,2338,2338
18205,2413,2413,2413
18206,2433,2433,2433
18210,2063,2063,2063
18211,1840,1840,1840
18212,1584,1584,1584
18213,1363,1363,1363
18214,1164,1164,1164
18215,1011,1011,1011
18216,927,927,927
18217,912,912,912
18218,970,970,970
18219,1092,1092,1092
18221,1930,1930,1930
18222,2128,2128,2128
18223,2265,2265,2265
18224,2333,2333,2333
18225,2327,2327,2327
18226,2239,2239,2239
18227,2084,2084,2084
18228,1834,1834,1834
18229,1521,1521,1521
18230,1164,1164,1164
18232,421,421,421
18233,144,144,144
18234,0,0,0
18235,0,0,0
18236,0,0,0
18237,0,0,0
18238,0,0,0
18239,0,0,0
18240,94,94,94
18241,217,217,217
18244,408,408,408
18245,438,438,438
18246,422,422,422
18247,336,336,336
18248,194,194,194
18249,2,2,2
18250,0,0,0
18251,0,0,0
18252,0,0,0
18253,0,0,0
18256,0,0,0
18257,0,0,0
18258,0,0,0
18259,0,0,0
18260,0,0,0
18261,0,0,0
18262,0,0,0
18263,0,0,0
18264,0,0,0
18265,0,0,0
18270,0,0,0
18271,0,0,0
18272,0,0,0
18273,0,0,0
18274,0,0,0
18275,0,0,0
18276,0,0,0
18277,0,0,0
18278,0,0,0
18279,0,0,0
18281,0,0,0
18282,0,0,0
18283,0,0,0
18284,0,0,0
18285,0,0,0
18286,0,0,0
18287,0,0,0
18288,0,0,0
18289,0,0,0
18290,0,0,0
18298,0,0,0
18299,0,0,0
18300,0,0,0
18301,0,0,0
18302,0,0,0
18303,0,0,0
18304,0,0,0
18305,0,0,0
18306,0,0,0
18307,0,0,0
18310,303,303,303
18311,238,238,238
18312,0,0,0
18313,0,0,0
18314,0,0,0
18315,0,0,0
18316,0,0,0
18317,0,0,0
18318,0,0,0
18319,0,0,0
18321,575,575,575
18322,663,663,663
18323,951,951,951
18324,1073,1073,1073
18325,1114,1114,1114
18326,1088,1088,1088
18327,991,991,991
18328,835,835,835
18329,627,627,627
18330,406,406,406
18341,16,16,16
18342,0,0,0
18343,0,0,0
18344,0,0,0
18345,0,0,0
18346,13,13,13
18347,207,207,207
18348,452,452,452
18349,726,726,726
18350,977,977,977
18353,510,510,510
18354,320,320,320
18355,187,187,187
18356,111,111,111
18357,98,98,98
18358,169,169,169
18359,292,292,292
18360,485,485,485
18361,714,714,714
18362,955,955,955
18367,1586,1586,1586
18368,1680,1680,1680
18369,1711,1711,1711
18370,1643,1643,1643
18371,1520,1520,1520
18372,1341,1341,1341
18373,1125,1125,1125
18374,887,887,887
18375,674,674,674
18376,490,490,490
18379,711,711,711
18380,949,949,949
18381,1211,1211,1211
18382,1440,1440,1440
18383,1648,1648,1648
18384,1791,1791,1791
18385,1878,1878,1878
18386,1898,1898,1898
18387,1840,1840,1840
18388,1779,1779,1779
18390,1072,1072,1072
18391,848,848,848
18392,640,640,640
18393,496,496,496
18394,407,407,407
18395,397,397,397
18396,459,459,459
18397,590,590,590
18398,779,779,779
18399,1008,1008,1008
18401,1490,1490,1490
18402,1715,1715,1715
18403,1868,1868,1868
18404,1965,1965,1965
18405,1991,1991,1991
18406,1936,1936,1936
18407,1822,1822,1822
18408,1643,1643,1643
18409,1424,1424,1424
18410,1184,1184,1184
18420,752,752,752
18421,682,682,682
18422,511,511,511
18423,506,506,506
18424,583,583,583
18425,709,709,709
18426,912,912,912
18427,1154,1154,1154
18428,1418,1418,1418
18429,1663,1663,1663
18432,1088,1088,1088
18433,877,877,877
18434,720,720,720
18435,626,626,626
18436,597,597,597
18437,652,652,652
18438,763,763,763
18439,945,945,945
18440,1066,1066,1066
18441,1440,1440,1440
18444,2085,2085,2085
18445,2187,2187,2187
18446,2213,2213,2213
18447,2160,2160,2160
18448,2037,2037,2037
18449,1856,1856,1856
18450,1626,1626,1626
18451,1367,1367,1367
18452,1131,1131,1131
18453,1038,1038,1038
18459,668,668,668
18460,738,738,738
18461,863,863,863
18462,1057,1057,1057
18463,1287,1287,1287
18464,1533,1533,1533
18465,1765,1765,1765
18466,1973,1973,1973
18467,2139,2139,2139
18468,2243,2243,2243
18475,1479,1479,1479
18476,1291,1291,1291
18477,1127,1127,1127
18478,1013,1013,1013
18479,959,959,959
18480,969,969,969
18481,1072,1072,1072
18482,1200,1200,1200
18483,1267,1267,1267
18484,1581,1581,1581
18486,2434,2434,2434
18487,2385,2385,2385
18488,2266,2266,2266
18489,2091,2091,2091
18490,1863,1863,1863
18491,1616,1616,1616
18492,1511,1511,1511
18493,1173,1173,1173
18494,1017,1017,1017
18495,914,914,914
18497,1053,1053,1053
18498,1237,1237,1237
18499,1456,1456,1456
18500,1696,1696,1696
18501,1920,1920,1920
18502,2129,2129,2129
18503,2295,2295,2295
18504,2347,2347,2347
18505,2420,2420,2420
18506,2362,2362,2362
18508,2073,2073,2073
18509,1855,1855,1855
18510,1623,1623,1623
18511,1398,1398,1398
18512,1185,1185,1185
18513,1021,1021,1021
18514,926,926,926
18515,902,902,902
18516,951,951,951
18517,998,998,998
18521,1460,1460,1460
18522,1710,1710,1710
18523,1935,1935,1935
18524,2139,2139,2139
18525,2302,2302,2302
18526,2395,2395,2395
18527,2428,2428,2428
18528,2384,2384,2384
18529,2272,2272,2272
18530,2096,2096,2096
18533,1207,1207,1207
18534,1055,1055,1055
18535,951,951,951
18536,935,935,935
18537,990,990,990
18538,1117,1117,1117
18539,1306,1306,1306
18540,1524,1524,1524
18541,1775,1775,1775
18542,1989,1989,1989
18544,2455,2455,2455
18545,2465,2465,2465
18546,2416,2416,2416
18547,2297,2297,2297
18548,2113,2113,2113
18549,1902,1902,1902
18550,1656,1656,1656
18551,1427,1427,1427
18552,1223,1223,1223
18553,1072,1072,1072
18555,960,960,960
18556,975,975,975
18557,1158,1158,1158
18558,1337,1337,1337
18559,1535,1535,1535
18560,1782,1782,1782
18561,2002,2002,2002
18562,2203,2203,2203
18563,2364,2364,2364
18564,2467,2467,2467
18566,2441,2441,2441
18567,2320,2320,2320
18568,2154,2154,2154
18569,2046,2046,2046
18570,1695,1695,1695
18571,1471,1471,1471
18572,1265,1265,1265
18573,1107,1107,1107
18574,1003,1003,1003
18575,965,965,965
18578,1155,1155,1155
18579,1348,1348,1348
18580,1573,1573,1573
18581,1825,1825,1825
18582,2063,2063,2063
18583,2177,2177,2177
18584,2448,2448,2448
18585,2545,2545,2545
18586,2559,2559,2559
18587,2535,2535,2535
18590,2258,2258,2258
18591,2055,2055,2055
18592,1809,1809,1809
18593,1599,1599,1599
18594,1406,1406,1406
18595,1255,1255,1255
18596,1152,1152,1152
18597,1135,1135,1135
18598,1166,1166,1166
18599,1269,1269,1269
18601,2116,2116,2116
18602,2306,2306,2306
18603,2451,2451,2451
18604,2542,2542,2542
18605,2559,2559,2559
18606,2515,2515,2515
18607,2411,2411,2411
18608,2342,2342,2342
18609,2021,2021,2021
18610,1776,1776,1776
18612,1326,1326,1326
18613,1169,1169,1169
18614,1066,1066,1066
18615,1046,1046,1046
18616,1093,1093,1093
18617,1216,1216,1216
18618,1395,1395,1395
18619,1616,1616,1616
18620,1856,1856,1856
18621,1959,1959,1959
18627,2459,2459,2459
18628,2559,2559,2559
18629,2606,2606,2606
18630,2558,2558,2558
18631,2445,2445,2445
18632,2271,2271,2271
18633,2059,2059,2059
18634,1811,1811,1811
18635,1584,1584,1584
18636,1360,1360,1360
18639,1417,1417,1417
18640,1647,1647,1647
18641,1887,1887,1887
18642,2121,2121,2121
18643,2325,2325,2325
18644,2479,2479,2479
18645,2559,2559,2559
18646,2601,2601,2601
18647,2544,2544,2544
18648,2495,2495,2495
18650,1776,1776,1776
18651,1527,1527,1527
18652,1325,1325,1325
18653,1155,1155,1155
18654,1062,1062,1062
18655,1040,1040,1040
18656,1099,1099,1099
18657,1217,1217,1217
18658,1407,1407,1407
18659,1631,1631,1631
18661,2113,2113,2113
18662,2327,2327,2327
18663,2484,2484,2484
18664,2591,2591,2591
18665,2624,2624,2624
18666,2587,2587,2587
18667,2464,2464,2464
18668,2291,2291,2291
18669,2082,2082,2082
18670,1837,1837,1837
18679,1376,1376,1376
18680,1301,1301,1301
18681,1110,1110,1110
18682,1091,1091,1091
18683,1138,1138,1138
18684,1262,1262,1262
18685,1440,1440,1440
18686,1664,1664,1664
18687,1904,1904,1904
18688,2138,2138,2138
18691,1872,1872,1872
18692,1647,1647,1647
18693,1447,1447,1447
18694,1279,1279,1279
18695,1168,1168,1168
18696,1133,1133,1133
18697,1167,1167,1167
18698,1276,1276,1276
18699,1446,1446,1446
18700,1535,1535,1535
18702,2325,2325,2325
18703,2486,2486,2486
18704,2594,2594,2594
18705,2618,2618,2618
18706,2559,2559,2559
18707,2449,2449,2449
18708,2274,2274,2274
18709,2064,2064,2064
18710,1821,1821,1821
18711,1595,1595,1595
18713,1217,1217,1217
18714,1119,1119,1119
18715,1093,1093,1093
18716,1137,1137,1137
18717,1263,1263,1263
18718,1445,1445,1445
18719,1679,1679,1679
18720,1926,1926,1926
18721,2158,2158,2158
18722,2362,2362,2362
18724,2617,2617,2617
18725,2636,2636,2636
18726,2592,2592,2592
18727,2474,2474,2474
18728,2291,2291,2291
18729,2078,2078,2078
18730,1834,1834,1834
18731,1600,1600,1600
18732,1373,1373,1373
18733,1205,1205,1205
18736,1055,1055,1055
18737,1090,1090,1090
18738,1203,1203,1203
18739,1278,1278,1278
18740,1610,1610,1610
18741,1864,1864,1864
18742,2094,2094,2094
18743,2306,2306,2306
18744,2466,2466,2466
18745,2559,2559,2559
18748,2446,2446,2446
18749,2251,2251,2251
18750,2010,2010,2010
18751,1741,1741,1741
18752,1623,1623,1623
18753,1222,1222,1222
18754,1038,1038,1038
18755,902,902,902
18756,848,848,848
18757,879,879,879
18765,1372,1372,1372
18766,1621,1621,1621
18767,1843,1843,1843
18768,2065,2065,2065
18769,2217,2217,2217
18770,2294,2294,2294
18771,2391,2391,2391
18772,2369,2369,2369
18773,2291,2291,2291
18774,2153,2153,2153
18778,1053,1053,1053
18779,1080,1080,1080
18780,1114,1114,1114
18781,1360,1360,1360
18782,1557,1557,1557
18783,1795,1795,1795
18784,2011,2011,2011
18785,2222,2222,2222
18786,2382,2382,2382
18787,2481,2481,2481
18789,2192,2192,2192
18790,1985,1985,1985
18791,1872,1872,1872
18792,1495,1495,1495
18793,1289,1289,1289
18794,1123,1123,1123
18795,1009,1009,1009
18796,973,973,973
18797,1011,1011,1011
18798,1123,1123,1123
18800,1751,1751,1751
18801,1993,1993,1993
18802,2217,2217,2217
18803,2295,2295,2295
18804,2505,2505,2505
18805,2539,2539,2539
18806,2496,2496,2496
18807,2384,2384,2384
18808,2219,2219,2219
18809,2013,2013,2013
18812,1553,1553,1553
18813,1345,1345,1345
18814,1184,1184,1184
18815,1066,1066,1066
18816,1018,1018,1018
18817,1017,1017,1017
18818,1147,1147,1147
18819,1326,1326,1326
18820,1535,1535,1535
18821,1776,1776,1776
18824,2247,2247,2247
18825,2429,2429,2429
18826,2555,2555,2555
18827,2599,2599,2599
18828,2551,2551,2551
18829,2414,2414,2414
18830,2197,2197,2197
18831,2078,2078,2078
18832,1658,1658,1658
18833,1407,1407,1407
18835,857,857,857
18836,820,820,820
18837,848,848,848
18838,944,944,944
18839,1117,1117,1117
18840,1325,1325,1325
18841,1568,1568,1568
18842,1796,1796,1796
18843,1891,1891,1891
18844,2178,2178,2178
18851,2277,2277,2277
18852,2169,2169,2169
18853,1980,1980,1980
18854,1776,1776,1776
18855,1531,1531,1531
18856,1322,1322,1322
18857,1136,1136,1136
18858,989,989,989
18859,913,913,913
18860,909,909,909
19000,2225,2225,2225
19001,2423,2423,2423
19002,2587,2587,2587
19003,2677,2677,2677
19004,2691,2691,2691
19005,2635,2635,2635
19006,2497,2497,2497
19007,2423,2423,2423
19008,2087,2087,2087
19009,1831,1831,1831
19012,1907,1907,1907
19013,1791,1791,1791
19014,1424,1424,1424
19015,1274,1274,1274
19016,1152,1152,1152
19017,1100,1100,1100
19018,1123,1123,1123
19019,1232,1232,1232
19020,1410,1410,1410
19021,1642,1642,1642
19023,2559,2559,2559
19024,2627,2627,2627
19025,2746,2746,2746
19026,2715,2715,2715
19027,2606,2606,2606
19028,2425,2425,2425
19029,2203,2203,2203
19030,1955,1955,1955
19031,1712,1712,1712
19032,1474,1474,1474
19035,1168,1168,1168
19036,1122,1122,1122
19037,1153,1153,1153
19038,1191,1191,1191
19039,1453,1453,1453
19040,1673,1673,1673
19041,1922,1922,1922
19042,2171,2171,2171
19043,2403,2403,2403
19044,2593,2593,2593
19047,2757,2757,2757
19048,2662,2662,2662
19049,2495,2495,2495
19050,2284,2284,2284
19051,2177,2177,2177
19052,1778,1778,1778
19053,1535,1535,1535
19054,1361,1361,1361
19055,1239,1239,1239
19056,1197,1197,1197
19058,1494,1494,1494
19059,1717,1717,1717
19060,1958,1958,1958
19061,2202,2202,2202
19062,2423,2423,2423
19063,2510,2510,2510
19064,2739,2739,2739
19065,2788,2788,2788
19066,2749,2749,2749
19067,2640,2640,2640
19069,2230,2230,2230
19070,1982,1982,1982
19071,1735,1735,1735
19072,1501,1501,1501
19073,1319,1319,1319
19074,1199,1199,1199
19075,1151,1151,1151
19076,1157,1157,1157
19077,1294,1294,1294
19078,1462,1462,1462
19080,1920,1920,1920
19081,2160,2160,2160
19082,2384,2384,2384
19083,2559,2559,2559
19084,2691,2691,2691
19085,2742,2742,2742
19086,2709,2709,2709
19087,2615,2615,2615
19088,2450,2450,2450
19089,2350,2350,2350
19100,1767,1767,1767
19101,1554,1554,1554
19102,1376,1376,1376
19103,1258,1258,1258
19104,1215,1215,1215
19105,1236,1236,1236
19106,1330,1330,1330
19107,1488,1488,1488
19108,1693,1693,1693
19109,1928,1928,1928
19111,1904,1904,1904
19112,1655,1655,1655
19113,1427,1427,1427
19114,1245,1245,1245
19115,1122,1122,1122
19116,1091,1091,1091
19117,1125,1125,1125
19118,1235,1235,1235
19119,1414,1414,1414
19120,1629,1629,1629
19122,2294,2294,2294
19123,2444,2444,2444
19124,2512,2512,2512
19125,2496,2496,2496
19126,2396,2396,2396
19127,2218,2218,2218
19128,2117,2117,2117
19129,1674,1674,1674
19130,1346,1346,1346
19131,1042,1042,1042
19133,528,528,528
19134,363,363,363
19135,300,300,300
19136,304,304,304
19137,388,388,388
19138,543,543,543
19139,736,736,736
19140,955,955,955
19141,1056,1056,1056
19142,1403,1403,1403
19145,1701,1701,1701
19146,1746,1746,1746
19147,1727,1727,1727
19148,1632,1632,1632
19149,1456,1456,1456
19150,1246,1246,1246
19151,1010,1010,1010
19152,782,782,782
19153,573,573,573
19154,418,418,418
19157,272,272,272
19158,304,304,304
19159,401,401,401
19160,563,563,563
19161,769,769,769
19162,1003,1003,1003
19163,1237,1237,1237
19164,1456,1456,1456
19165,1638,1638,1638
19166,1760,1760,1760
19168,1516,1516,1516
19169,1332,1332,1332
19170,1099,1099,1099
19171,867,867,867
19172,661,661,661
19173,494,494,494
19174,383,383,383
19175,336,336,336
19176,368,368,368
19177,464,464,464
19179,872,872,872
19180,986,986,986
19181,1392,1392,1392
19182,1626,1626,1626
19183,1808,1808,1808
19184,1938,1938,1938
19185,1998,1998,1998
19186,1971,1971,1971
19187,1875,1875,1875
19188,1705,1705,1705
19191,1232,1232,1232
19192,982,982,982
19193,769,769,769
19194,688,688,688
19195,465,465,465
19196,426,426,426
19197,462,462,462
19198,574,574,574
19199,747,747,747
19200,971,971,971
19205,1490,1490,1490
19206,1728,1728,1728
19207,1917,1917,1917
19208,2059,2059,2059
19209,2125,2125,2125
19210,2128,2128,2128
19211,2018,2018,2018
19212,1855,1855,1855
19213,1649,1649,1649
19214,1399,1399,1399
19216,411,411,411
19217,412,412,412
19218,496,496,496
19219,646,646,646
19220,742,742,742
19221,1114,1114,1114
19222,1359,1359,1359
19223,1596,1596,1596
19224,1776,1776,1776
19225,1898,1898,1898
19233,1811,1811,1811
19234,1648,1648,1648
19235,1440,1440,1440
19236,1192,1192,1192
19237,952,952,952
19238,832,832,832
19239,582,582,582
19240,500,500,500
19241,511,511,511
19242,597,597,597
19245,2081,2081,2081
19246,2207,2207,2207
19247,2239,2239,2239
19248,2238,2238,2238
19249,2144,2144,2144
19250,1971,1971,1971
19251,1769,1769,1769
19252,1520,1520,1520
19253,1281,1281,1281
19254,1047,1047,1047
19257,716,716,716
19258,827,827,827
19259,887,887,887
19260,1247,1247,1247
19261,1502,1502,1502
19262,1746,1746,1746
19263,1982,1982,1982
19264,2174,2174,2174
19265,2314,2314,2314
19266,2382,2382,2382
19268,2190,2190,2190
19269,1985,1985,1985
19270,1747,1747,1747
19271,1646,1646,1646
19272,1261,1261,1261
19273,1072,1072,1072
19274,921,921,921
19275,854,854,854
19276,869,869,869
19277,961,961,961
19280,1344,1344,1344
19281,1600,1600,1600
19282,1845,1845,1845
19283,2081,2081,2081
19284,2267,2267,2267
19285,2334,2334,2334
19286,2461,2461,2461
19287,2448,2448,2448
19288,2368,2368,2368
19289,2224,2224,2224
19294,1585,1585,1585
19295,1363,1363,1363
19296,1183,1183,1183
19297,1055,1055,1055
19298,996,996,996
19299,1014,1014,1014
19300,1059,1059,1059
19301,1295,1295,1295
19302,1489,1489,1489
19303,1735,1735,1735
19305,2467,2467,2467
19306,2525,2525,2525
19307,2511,2511,2511
19308,2420,2420,2420
19309,2262,2262,2262
19310,2058,2058,2058
19311,1946,1946,1946
19312,1569,1569,1569
19313,1328,1328,1328
19314,1152,1152,1152
19316,989,989,989
19317,1103,1103,1103
19318,1281,1281,1281
19319,1508,1508,1508
19320,1774,1774,1774
19321,2019,2019,2019
19322,2256,2256,2256
19323,2341,2341,2341
19324,2559,2559,2559
19325,2608,2608,2608
19327,2483,2483,2483
19328,2320,2320,2320
19329,2109,2109,2109
19330,1857,1857,1857
19331,1611,1611,1611
19332,1377,1377,1377
19333,1189,1189,1189
19334,1056,1056,1056
19335,991,991,991
19336,989,989,989
19339,1278,1278,1278
19340,1475,1475,1475
19341,1721,1721,1721
19342,1982,1982,1982
19343,2224,2224,2224
19344,2421,2421,2421
19345,2559,2559,2559
19346,2647,2647,2647
19347,2630,2630,2630
19348,2529,2529,2529
19350,1827,1827,1827
19351,1558,1558,1558
19352,1280,1280,1280
19353,1058,1058,1058
19354,886,886,886
19355,801,801,801
19356,801,801,801
19357,881,881,881
19358,1040,1040,1040
19359,1246,1246,1246
19367,1739,1739,1739
19368,1840,1840,1840
19369,2179,2179,2179
19370,2288,2288,2288
19371,2344,2344,2344
19372,2336,2336,2336
19373,2275,2275,2275
19374,2158,2158,2158
19375,1983,1983,1983
19376,1775,1775,1775
19379,1151,1151,1151
19380,1313,1313,1313
19381,1523,1523,1523
19382,1779,1779,1779
19383,2032,2032,2032
19384,2274,2274,2274
19385,2465,2465,2465
19386,2612,2612,2612
19387,2678,2678,2678
19388,2663,2663,2663
19392,1946,1946,1946
19393,1717,1717,1717
19394,1493,1493,1493
19395,1307,1307,1307
19396,1173,1173,1173
19397,1105,1105,1105
19398,1116,1116,1116
19399,1206,1206,1206
19400,1359,1359,1359
19401,1564,1564,1564
19512,2276,2276,2276
19513,2457,2457,2457
19514,2611,2611,2611
19515,2679,2679,2679
19516,2678,2678,2678
19517,2590,2590,2590
19518,2420,2420,2420
19519,2214,2214,2214
19520,1968,1968,1968
19521,1725,1725,1725
19523,2314,2314,2314
19524,2501,2501,2501
19525,2651,2651,2651
19526,2723,2723,2723
19527,2721,2721,2721
19528,2627,2627,2627
19529,2457,2457,2457
19530,2249,2249,2249
19531,2000,2000,2000
19532,1890,1890,1890
19534,1199,1199,1199
19535,1136,1136,1136
19536,1153,1153,1153
19537,1249,1249,1249
19538,1408,1408,1408
19539,1620,1620,1620
19540,1867,1867,1867
19541,2112,2112,2112
19542,2338,2338,2338
19543,2525,2525,2525
19549,2735,2735,2735
19550,2721,2721,2721
19551,2634,2634,2634
19552,2466,2466,2466
19553,2256,2256,2256
19554,2016,2016,2016
19555,1766,1766,1766
19556,1525,1525,1525
19557,1330,1330,1330
19558,1190,1190,1190
19561,1920,1920,1920
19562,2171,2171,2171
19563,2405,2405,2405
19564,2590,2590,2590
19565,2724,2724,2724
19566,2783,2783,2783
19567,2770,2770,2770
19568,2679,2679,2679
19569,2512,2512,2512
19570,2315,2315,2315
19572,1592,1592,1592
19573,1405,1405,1405
19574,1264,1264,1264
19575,1188,1188,1188
19576,1189,1189,1189
19577,1266,1266,1266
19578,1421,1421,1421
19579,1641,1641,1641
19580,1889,1889,1889
19581,2141,2141,2141
19583,2735,2735,2735
19584,2803,2803,2803
19585,2799,2799,2799
19586,2717,2717,2717
19587,2542,2542,2542
19588,2317,2317,2317
19589,2057,2057,2057
19590,1794,1794,1794
19591,1535,1535,1535
19592,1344,1344,1344
19596,1200,1200,1200
19597,1135,1135,1135
19598,1135,1135,1135
19599,1251,1251,1251
19600,1418,1418,1418
19601,1622,1622,1622
19602,1871,1871,1871
19603,2122,2122,2122
19604,2355,2355,2355
19605,2548,2548,2548
19608,2763,2763,2763
19609,2678,2678,2678
19610,2509,2509,2509
19611,2435,2435,2435
19612,2032,2032,2032
19613,1808,1808,1808
19614,1573,1573,1573
19615,1370,1370,1370
19616,1223,1223,1223
19617,1163,1163,1163
19619,1409,1409,1409
19620,1600,1600,1600
19621,1818,1818,1818
19622,2032,2032,2032
19623,2132,2132,2132
19624,2402,2402,2402
19625,2510,2510,2510
19626,2544,2544,2544
19627,2507,2507,2507
19628,2401,2401,2401
19636,1759,1759,1759
19637,1497,1497,1497
19638,1264,1264,1264
19639,1069,1069,1069
19640,921,921,921
19641,896,896,896
19642,944,944,944
19643,1072,1072,1072
19644,1307,1307,1307
19645,1570,1570,1570
19648,2781,2781,2781
19649,2686,2686,2686
19650,2629,2629,2629
19651,2303,2303,2303
19652,2058,2058,2058
19653,1804,1804,1804
19654,1558,1558,1558
19655,1343,1343,1343
19656,1185,1185,1185
19657,1104,1104,1104
19659,1581,1581,1581
19660,1840,1840,1840
19661,1937,1937,1937
19662,2357,2357,2357
19663,2544,2544,2544
19664,2697,2697,2697
19665,2768,2768,2768
19666,2767,2767,2767
19667,2677,2677,2677
19668,2520,2520,2520
19671,2090,2090,2090
19672,1843,1843,1843
19673,1606,1606,1606
19674,1406,1406,1406
19675,1329,1329,1329
19676,1203,1203,1203
19677,1258,1258,1258
19678,1360,1360,1360
19679,1521,1521,1521
19680,1729,1729,1729
19684,2217,2217,2217
19685,2441,2441,2441
19686,2634,2634,2634
19687,2775,2775,2775
19688,2843,2843,2843
19689,2832,2832,2832
19690,2801,2801,2801
19691,2559,2559,2559
19692,2373,2373,2373
19693,2131,2131,2131
19698,1243,1243,1243
19699,1243,1243,1243
19700,1313,1313,1313
19701,1460,1460,1460
19702,1659,1659,1659
19703,1760,1760,1760
19704,2141,2141,2141
19705,2380,2380,2380
19706,2559,2559,2559
19707,2709,2709,2709
19710,2296,2296,2296
19711,2054,2054,2054
19712,1807,1807,1807
19713,1571,1571,1571
19714,1479,1479,1479
19715,1227,1227,1227
19716,1154,1154,1154
19717,1166,1166,1166
19718,1246,1246,1246
19719,1393,1393,1393
19721,2076,2076,2076
19722,2305,2305,2305
19723,2487,2487,2487
19724,2640,2640,2640
19725,2709,2709,2709
19726,2722,2722,2722
19727,2634,2634,2634
19728,2476,2476,2476
19729,2275,2275,2275
19730,2032,2032,2032
19734,1535,1535,1535
19735,1345,1345,1345
19736,1197,1197,1197
19737,1126,1126,1126
19738,1136,1136,1136
19739,1218,1218,1218
19740,1373,1373,1373
19741,1476,1476,1476
19742,1859,1859,1859
19743,2098,2098,2098
19746,2764,2764,2764
19747,2754,2754,2754
19748,2671,2671,2671
19749,2509,2509,2509
19750,2304,2304,2304
19751,2058,2058,2058
19752,1802,1802,1802
19753,1697,1697,1697
19754,1360,1360,1360
19755,1200,1200,1200
19757,1207,1207,1207
19758,1374,1374,1374
19759,1602,1602,1602
19760,1857,1857,1857
19761,2109,2109,2109
19762,2337,2337,2337
19763,2523,2523,2523
19764,2667,2667,2667
19765,2704,2704,2704
19766,2715,2715,2715
19768,2462,2462,2462
19769,2256,2256,2256
19770,2009,2009,2009
19771,1756,1756,1756
19772,1515,1515,1515
19773,1320,1320,1320
19774,1170,1170,1170
19775,1101,1101,1101
19776,1102,1102,1102
19777,1179,1179,1179
19779,1535,1535,1535
19780,1801,1801,1801
19781,2044,2044,2044
19782,2288,2288,2288
19783,2493,2493,2493
19784,2644,2644,2644
19785,2717,2717,2717
19786,2713,2713,2713
19787,2630,2630,2630
19788,2471,2471,2471
19796,2005,2005,2005
19797,1885,1885,1885
19798,1481,1481,1481
19799,1302,1302,1302
19800,1155,1155,1155
19801,1071,1071,1071
19802,1079,1079,1079
19803,1170,1170,1170
19804,1335,1335,1335
19805,1535,1535,1535
19809,2704,2704,2704
19810,2630,2630,2630
19811,2469,2469,2469
19812,2253,2253,2253
19813,2004,2004,2004
19814,1753,1753,1753
19815,1495,1495,1495
19816,1287,1287,1287
19817,1133,1133,1133
19818,1057,1057,1057
19820,1524,1524,1524
19821,1776,1776,1776
19822,2025,2025,2025
19823,2266,2266,2266
19824,2463,2463,2463
19825,2622,2622,2622
19826,2698,2698,2698
19827,2687,2687,2687
19828,2601,2601,2601
19829,2438,2438,2438
19837,1712,1712,1712
19838,1453,1453,1453
19839,1261,1261,1261
19840,1104,1104,1104
19841,1019,1019,1019
19842,1022,1022,1022
19843,1107,1107,1107
19844,1264,1264,1264
19845,1474,1474,1474
19846,1735,1735,1735
19849,2615,2615,2615
19850,2464,2464,2464
19851,2259,2259,2259
19852,2015,2015,2015
19853,1762,1762,1762
19854,1506,1506,1506
19855,1301,1301,1301
19856,1137,1137,1137
19857,1053,1053,1053
19858,1038,1038,1038
19860,1664,1664,1664
19861,1902,1902,1902
19862,2133,2133,2133
19863,2332,2332,2332
19864,2477,2477,2477
19865,2544,2544,2544
19866,2542,2542,2542
19867,2447,2447,2447
19868,2283,2283,2283
19869,2180,2180,2180
19871,1566,1566,1566
19872,1328,1328,1328
19873,1138,1138,1138
19874,989,989,989
19875,912,912,912
19876,912,912,912
19877,992,992,992
19878,1149,1149,1149
19879,1355,1355,1355
19880,1600,1600,1600
19882,2277,2277,2277
19883,2428,2428,2428
19884,2503,2503,2503
19885,2513,2513,2513
19886,2448,2448,2448
19887,2307,2307,2307
19888,2114,2114,2114
19889,1856,1856,1856
19890,1587,1587,1587
19891,1327,1327,1327
19900,1105,1105,1105
19901,945,945,945
19902,910,910,910
19903,874,874,874
19904,954,954,954
19905,1121,1121,1121
19906,1343,1343,1343
19907,1615,1615,1615
19908,1884,1884,1884
19909,2141,2141,2141
19913,1874,1874,1874
19914,1634,1634,1634
19915,1369,1369,1369
19916,1169,1169,1169
19917,1012,1012,1012
19918,924,924,924
19919,926,926,926
19920,1003,1003,1003
19921,1165,1165,1165
19922,1367,1367,1367
19925,2493,2493,2493
19926,2586,2586,2586
19927,2596,2596,2596
19928,2518,2518,2518
19929,2370,2370,2370
19930,2172,2172,2172
19931,1927,1927,1927
19932,1661,1661,1661
19933,1405,1405,1405
19934,1197,1197,1197
19936,963,963,963
19937,1052,1052,1052
19938,1204,1204,1204
19939,1415,1415,1415
19940,1665,1665,1665
19941,1914,1914,1914
19942,2158,2158,2158
19943,2359,2359,2359
19944,2512,2512,2512
19945,2601,2601,2601
19948,2373,2373,2373
19949,2187,2187,2187
19950,1950,1950,1950
19951,1714,1714,1714
19952,1465,1465,1465
19953,1264,1264,1264
19954,1101,1101,1101
19955,1010,1010,1010
19956,1010,1010,1010
19957,1073,1073,1073
19959,1197,1197,1197
19960,1371,1371,1371
19961,1458,1458,1458
19962,1819,1819,1819
19963,2026,2026,2026
19964,2202,2202,2202
19965,2330,2330,2330
19966,2388,2388,2388
19967,2378,2378,2378
19968,2289,2289,2289
19977,1671,1671,1671
19978,1419,1419,1419
19979,1178,1178,1178
19980,1072,1072,1072
19981,814,814,814
19982,759,759,759
19983,794,794,794
19984,897,897,897
19985,1093,1093,1093
19986,1324,1324,1324
19989,2647,2647,2647
19990,2502,2502,2502
19991,2308,2308,2308
19992,2066,2066,2066
19993,1801,1801,1801
19994,1535,1535,1535
19995,1334,1334,1334
19996,1168,1168,1168
19997,1088,1088,1088
19998,1082,1082,1082
19999,1792,1792,1792
20000,2032,2032,2032
20001,2279,2279,2279
20002,2477,2477,2477
20003,2631,2631,2631
20004,2704,2704,2704
20005,2705,2705,2705
20006,2624,2624,2624
20007,2463,2463,2463
20008,2271,2271,2271
20012,2013,2013,2013
20013,1765,1765,1765
20014,1635,1635,1635
20015,1293,1293,1293
20016,1136,1136,1136
20017,1055,1055,1055
20018,1059,1059,1059
20019,1134,1134,1134
20020,1291,1291,1291
20021,1493,1493,1493
20024,2240,2240,2240
20025,2444,2444,2444
20026,2603,2603,2603
20027,2651,2651,2651
20028,2698,2698,2698
20029,2623,2623,2623
20030,2471,2471,2471
20031,2272,2272,2272
20032,2032,2032,2032
20033,1777,1777,1777
20036,1139,1139,1139
20037,1143,1143,1143
20038,1229,1229,1229
20039,1286,1286,1286
20040,1600,1600,1600
20041,1840,1840,1840
20042,2078,2078,2078
20043,2307,2307,2307
20044,2502,2502,2502
20045,2659,2659,2659
20047,2667,2667,2667
20048,2518,2518,2518
20049,2323,2323,2323
20050,2082,2082,2082
20051,1969,1969,1969
20052,1572,1572,1572
20053,1359,1359,1359
20054,1190,1190,1190
20055,1098,1098,1098
20056,1087,1087,1087
20058,1293,1293,1293
20059,1492,1492,1492
20060,1744,1744,1744
20061,1997,1997,1997
20062,2233,2233,2233
20063,2431,2431,2431
20064,2497,2497,2497
20065,2654,2654,2654
20066,2640,2640,2640
20067,2554,2554,2554
20073,2191,2191,2191
20074,1936,1936,1936
20075,1680,1680,1680
20076,1423,1423,1423
20077,1203,1203,1203
20078,1023,1023,1023
20079,943,943,943
20080,930,930,930
20081,949,949,949
20082,1152,1152,1152
20085,2301,2301,2301
20086,2472,2472,2472
20087,2551,2551,2551
20088,2554,2554,2554
20089,2479,2479,2479
20090,2335,2335,2335
20091,2128,2128,2128
20092,2015,2015,2015
20093,1615,1615,1615
20094,1357,1357,1357
20096,885,885,885
20097,960,960,960
20098,1104,1104,1104
20099,1296,1296,1296
20100,1535,1535,1535
20101,1795,1795,1795
20102,2039,2039,2039
20103,2135,2135,2135
20104,2415,2415,2415
20105,2491,2491,2491
20108,2418,2418,2418
20109,2270,2270,2270
20110,2077,2077,2077
20111,1826,1826,1826
20112,1571,1571,1571
20113,1309,1309,1309
20114,1099,1099,1099
20115,932,932,932
20116,839,839,839
20117,825,825,825
20119,1061,1061,1061
20120,1266,1266,1266
20121,1520,1520,1520
20122,1771,1771,1771
20123,2010,2010,2010
20124,2222,2222,2222
20125,2379,2379,2379
20126,2462,2462,2462
20127,2475,2475,2475
20128,2410,2410,2410
20131,1777,1777,1777
20132,1526,1526,1526
20133,1271,1271,1271
20134,1047,1047,1047
20135,871,871,871
20136,780,780,780
20137,781,781,781
20138,855,855,855
20139,1018,1018,1018
20140,1229,1229,1229
20143,2194,2194,2194
20144,2326,2326,2326
20145,2377,2377,2377
20146,2351,2351,2351
20147,2246,2246,2246
20148,2065,2065,2065
20149,1836,1836,1836
20150,1558,1558,1558
20151,1277,1277,1277
20152,1003,1003,1003
20161,592,592,592
20162,550,550,550
20163,499,499,499
20164,576,576,576
20165,720,720,720
20166,960,960,960
20167,1255,1255,1255
20168,1564,1564,1564
20169,1856,1856,1856
20170,2101,2101,2101
20172,1498,1498,1498
20173,1247,1247,1247
20174,1044,1044,1044
20175,879,879,879
20176,782,782,782
20177,770,770,770
20178,837,837,837
20179,992,992,992
20180,1201,1201,1201
20181,1461,1461,1461
20184,2187,2187,2187
20185,2349,2349,2349
20186,2432,2432,2432
20187,2434,2434,2434
20188,2352,2352,2352
20189,2208,2208,2208
20190,2003,2003,2003
20191,1751,1751,1751
20192,1479,1479,1479
20193,1219,1219,1219
20195,741,741,741
20196,732,732,732
20197,795,795,795
20198,930,930,930
20199,1129,1129,1129
20200,1371,1371,1371
20201,1625,1625,1625
20202,1869,1869,1869
20203,2079,2079,2079
20204,2242,2242,2242
20206,2337,2337,2337
20207,2320,2320,2320
20208,2132,2132,2132
20209,1938,1938,1938
20210,1689,1689,1689
20211,1435,1435,1435
20212,1186,1186,1186
20213,972,972,972
20214,820,820,820
20215,739,739,739
20225,812,812,812
20226,954,954,954
20227,1166,1166,1166
20228,1285,1285,1285
20229,1708,1708,1708
20230,1947,1947,1947
20231,2157,2157,2157
20232,2322,2322,2322
20233,2435,2435,2435
20234,2483,2483,2483
20237,783,783,783
20238,764,764,764
20239,831,831,831
20240,976,976,976
20241,1187,1187,1187
20242,1431,1431,1431
20243,1689,1689,1689
20244,1937,1937,1937
20245,2144,2144,2144
20246,2314,2314,2314
20248,2177,2177,2177
20249,1971,1971,1971
20250,1732,1732,1732
20251,1470,1470,1470
20252,1221,1221,1221
20253,1008,1008,1008
20254,846,846,846
20255,756,756,756
20256,747,747,747
20257,810,810,810
20259,1435,1435,1435
20260,1675,1675,1675
20261,1932,1932,1932
20262,2142,2142,2142
20263,2314,2314,2314
20264,2411,2411,2411
20265,2416,2416,2416
20266,2341,2341,2341
20267,2192,2192,2192
20268,1978,1978,1978
20271,1718,1718,1718
20272,1453,1453,1453
20273,1337,1337,1337
20274,967,967,967
20275,788,788,788
20276,701,701,701
20277,687,687,687
20278,752,752,752
20279,908,908,908
20280,1129,1129,1129
20282,1666,1666,1666
20283,1917,1917,1917
20284,2146,2146,2146
20285,2331,2331,2331
20286,2374,2374,2374
20287,2410,2410,2410
20288,2314,2314,2314
20289,2130,2130,2130
20290,1904,1904,1904
20291,1622,1622,1622
20294,803,803,803
20295,627,627,627
20296,511,511,511
20297,486,486,486
20298,549,549,549
20299,599,599,599
20300,878,878,878
20301,1121,1121,1121
20302,1377,1377,1377
20303,1629,1629,1629
20314,2103,2103,2103
20315,2112,2112,2112
20316,2060,2060,2060
20317,1910,1910,1910
20318,1717,1717,1717
20319,1502,1502,1502
20320,1382,1382,1382
20321,1085,1085,1085
20322,940,940,940
20323,816,816,816
20326,2373,2373,2373
20327,2384,2384,2384
20328,2327,2327,2327
20329,2194,2194,2194
20330,1998,1998,1998
20331,1747,1747,1747
20332,1484,1484,1484
20333,1232,1232,1232
20334,1015,1015,1015
20335,851,851,851
20337,950,950,950
20338,1152,1152,1152
20339,1408,1408,1408
20340,1670,1670,1670
20341,1917,1917,1917
20342,2134,2134,2134
20343,2291,2291,2291
20344,2384,2384,2384
20345,2403,2403,2403
20346,2336,2336,2336
20348,2192,2192,2192
20349,1990,1990,1990
20350,1895,1895,1895
20351,1455,1455,1455
20352,1199,1199,1199
20353,982,982,982
20354,814,814,814
20355,729,729,729
20356,725,725,725
20357,806,806,806
20360,1159,1159,1159
20361,1401,1401,1401
20362,1648,1648,1648
20363,1895,1895,1895
20364,2004,2004,2004
20365,2302,2302,2302
20366,2387,2387,2387
20367,2411,2411,2411
20368,2353,2353,2353
20369,2222,2222,2222
20372,1771,1771,1771
20373,1511,1511,1511
20374,1264,1264,1264
20375,1055,1055,1055
20376,875,875,875
20377,783,783,783
20378,759,759,759
20379,826,826,826
20380,973,973,973
20381,1182,1182,1182
20383,2160,2160,2160
20384,2311,2311,2311
20385,2395,2395,2395
20386,2395,2395,2395
20387,2320,2320,2320
20388,2176,2176,2176
20389,2082,2082,2082
20390,1711,1711,1711
20391,1452,1452,1452
20392,1197,1197,1197
20395,806,806,806
20396,717,717,717
20397,720,720,720
20398,784,784,784
20399,928,928,928
20400,1134,1134,1134
20401,1381,1381,1381
20402,1649,1649,1649
20403,1766,1766,1766
20404,2128,2128,2128
20407,2394,2394,2394
20408,2410,2410,2410
20409,2341,2341,2341
20410,2193,2193,2193
20411,1990,1990,1990
20412,1735,1735,1735
20413,1470,1470,1470
20414,1217,1217,1217
20415,1003,1003,1003
20416,840,840,840
20420,815,815,815
20421,961,961,961
20422,1143,1143,1143
20423,1409,1409,1409
20424,1679,1679,1679
20425,1927,1927,1927
20426,2154,2154,2154
20427,2319,2319,2319
20428,2413,2413,2413
20429,2430,2430,2430
20431,1791,1791,1791
20432,1535,1535,1535
20433,1285,1285,1285
20434,1073,1073,1073
20435,890,890,890
20436,784,784,784
20437,755,755,755
20438,808,808,808
20439,942,942,942
20440,1129,1129,1129
20442,1907,1907,1907
20443,2128,2128,2128
20444,2308,2308,2308
20445,2421,2421,2421
20446,2452,2452,2452
20447,2403,2403,2403
20448,2274,2274,2274
20449,2074,2074,2074
20450,1819,1819,1819
20451,1535,1535,1535
20457,1052,1052,1052
20458,962,962,962
20459,770,770,770
20460,751,751,751
20461,813,813,813
20462,957,957,957
20463,1167,1167,1167
20464,1422,1422,1422
20465,1693,1693,1693
20466,1951,1951,1951
20471,2147,2147,2147
20472,1909,1909,1909
20473,1653,1653,1653
20474,1387,1387,1387
20475,1168,1168,1168
20476,984,984,984
20477,866,866,866
20478,831,831,831
20479,871,871,871
20480,1001,1001,1001
20482,1701,1701,1701
20483,1968,1968,1968
20484,2190,2190,2190
20485,2367,2367,2367
20486,2478,2478,2478
20487,2509,2509,2509
20488,2453,2453,2453
20489,2320,2320,2320
20490,2122,2122,2122
20491,1869,1869,1869
20493,897,897,897
20494,802,802,802
20495,770,770,770
20496,820,820,820
20497,943,943,943
20498,1135,1135,1135
20499,1374,1374,1374
20500,1646,1646,1646
20501,1904,1904,1904
20502,2129,2129,2129
20504,2303,2303,2303
20505,2400,2400,2400
20506,2419,2419,2419
20507,2370,2370,2370
20508,2235,2235,2235
20509,2044,2044,2044
20510,1794,1794,1794
20511,1531,1531,1531
20512,1263,1263,1263
20513,1036,1036,1036
20518,742,742,742
20519,711,711,711
20520,773,773,773
20521,913,913,913
20522,1011,1011,1011
20523,1408,1408,1408
20524,1660,1660,1660
20525,1911,1911,1911
20526,2143,2143,2143
20527,2314,2314,2314
20530,2026,2026,2026
20531,1773,1773,1773
20532,1504,1504,1504
20533,1387,1387,1387
20534,1007,1007,1007
20535,827,827,827
20536,703,703,703
20537,645,645,645
20538,672,672,672
20539,778,778,778
20548,1409,1409,1409
20549,1648,1648,1648
20550,1865,1865,1865
20551,2034,2034,2034
20552,2159,2159,2159
20553,2160,2160,2160
20554,2155,2155,2155
20555,2017,2017,2017
20556,1855,1855,1855
20557,1643,1643,1643
20560,1008,1008,1008
20561,1267,1267,1267
20562,1504,1504,1504
20563,1750,1750,1750
20564,1938,1938,1938
20565,2077,2077,2077
20566,2122,2122,2122
20567,2074,2074,2074
20568,1933,1933,1933
20569,1715,1715,1715
20571,416,416,416
20572,175,175,175
20573,0,0,0
20574,0,0,0
20575,0,0,0
20576,0,0,0
20577,0,0,0
20578,181,181,181
20579,433,433,433
20580,713,713,713
20582,989,989,989
20583,1226,1226,1226
20584,1315,1315,1315
20585,1526,1526,1526
20586,1572,1572,1572
20587,1520,1520,1520
20588,1383,1383,1383
20589,1185,1185,1185
20590,923,923,923
20591,650,650,650
20633,153,153,153
20634,0,0,0
20635,0,0,0
20636,0,0,0
20637,0,0,0
20638,69,69,69
20639,272,272,272
20640,576,576,576
20641,885,885,885
20642,1186,1186,1186
20644,1751,1751,1751
20645,1942,1942,1942
20646,2059,2059,2059
20647,2096,2096,2096
20648,2055,2055,2055
20649,1924,1924,1924
20650,1836,1836,1836
20651,1469,1469,1469
20652,1207,1207,1207
20653,941,941,941
20655,455,455,455
20656,444,444,444
20657,511,511,511
20658,675,675,675
20659,882,882,882
20660,1147,1147,1147
20661,1418,1418,1418
20662,1535,1535,1535
20663,1923,1923,1923
20664,2110,2110,2110
20671,2254,2254,2254
20672,2201,2201,2201
20673,2070,2070,2070
20674,1872,1872,1872
20675,1643,1643,1643
20676,1378,1378,1378
20677,1105,1105,1105
20678,878,878,878
20679,688,688,688
20680,629,629,629
20705,1485,1485,1485
20706,1773,1773,1773
20707,2009,2009,2009
20708,2197,2197,2197
20709,2317,2317,2317
20710,2352,2352,2352
20711,2299,2299,2299
20712,2251,2251,2251
20713,1967,1967,1967
20714,1714,1714,1714
20719,719,719,719
20720,687,687,687
20721,746,746,746
20722,890,890,890
20723,1100,1100,1100
20724,1361,1361,1361
20725,1651,1651,1651
20726,1920,1920,1920
20727,2157,2157,2157
20728,2332,2332,2332
20734,1811,1811,1811
20735,1534,1534,1534
20736,1265,1265,1265
20737,1023,1023,1023
20738,835,835,835
20739,725,725,725
20740,693,693,693
20741,749,749,749
20742,880,880,880
20743,1095,1095,1095
20746,2407,2407,2407
20747,2439,2439,2439
20748,2391,2391,2391
20749,2259,2259,2259
20750,2064,2064,2064
20751,1799,1799,1799
20752,1521,1521,1521
20753,1246,1246,1246
20754,1136,1136,1136
20755,810,810,810
20757,724,724,724
20758,854,854,854
20759,1045,1045,1045
20760,1279,1279,1279
20761,1533,1533,1533
20762,1793,1793,1793
20763,2018,2018,2018
20764,2205,2205,2205
20765,2310,2310,2310
20766,2335,2335,2335
20768,2154,2154,2154
20769,1967,1967,1967
20770,1719,1719,1719
20771,1446,1446,1446
20772,1168,1168,1168
20773,939,939,939
20774,752,752,752
20775,638,638,638
20776,614,614,614
20777,663,663,663
20780,1267,1267,1267
20781,1515,1515,1515
20782,1785,1785,1785
20783,2005,2005,2005
20784,2186,2186,2186
20785,2303,2303,2303
20786,2318,2318,2318
20787,2254,2254,2254
20788,2112,2112,2112
20789,1902,1902,1902
20793,1339,1339,1339
20794,1182,1182,1182
20795,752,752,752
20796,563,563,563
20797,425,425,425
20798,363,363,363
20799,384,384,384
20800,483,483,483
20801,637,637,637
20802,832,832,832
20805,1595,1595,1595
20806,1647,1647,1647
20807,1712,1712,1712
20808,1642,1642,1642
20809,1442,1442,1442
20810,1131,1131,1131
20811,720,720,720
20812,260,260,260
20813,0,0,0
20814,0,0,0
20818,0,0,0
20819,0,0,0
20820,0,0,0
20821,0,0,0
20822,0,0,0
20823,0,0,0
20824,0,0,0
20825,0,0,0
20826,0,0,0
20827,0,0,0
20830,0,0,0
20831,0,0,0
20832,0,0,0
20833,0,0,0
20834,0,0,0
20835,0,0,0
20836,0,0,0
20837,0,0,0
20838,0,0,0
20839,0,0,0
20843,0,0,0
20844,0,0,0
20845,0,0,0
20846,0,0,0
20847,0,0,0
20848,0,0,0
20849,0,0,0
20850,0,0,0
20851,0,0,0
20852,0,0,0
20855,0,0,0
20856,0,0,0
20857,0,0,0
20858,0,0,0
20859,0,0,0
20860,0,0,0
20861,0,0,0
20862,0,0,0
20863,0,0,0
20864,0,0,0
20866,0,0,0
20867,0,0,0
20868,0,0,0
20869,0,0,0
20870,0,0,0
20871,0,0,0
20872,0,0,0
20873,0,0,0
20874,0,0,0
20875,0,0,0
20877,0,0,0
20878,0,0,0
20879,0,0,0
20880,0,0,0
20881,0,0,0
20882,0,0,0
20883,0,0,0
20884,0,0,0
20885,0,0,0
20886,0,0,0
20888,0,0,0
20889,0,0,0
20890,0,0,0
20891,0,0,0
20892,0,0,0
20893,0,0,0
20894,0,0,0
20895,0,0,0
20896,0,0,0
20897,0,0,0
20900,0,0,0
20901,0,0,0
20902,0,0,0
20903,0,0,0
20904,0,0,0
20905,0,0,0
20906,0,0,0
20907,0,0,0
20908,0,0,0
20909,0,0,0
20912,0,0,0
20913,0,0,0
20914,0,0,0
20915,0,0,0
20916,0,0,0
20917,0,0,0
20918,0,0,0
20919,0,0,0
20920,0,0,0
20921,0,0,0
20924,0,0,0
20925,0,0,0
20926,0,0,0
20927,0,0,0
20928,0,0,0
20929,0,0,0
20930,0,0,0
20931,0,0,0
20932,0,0,0
20933,0,0,0
20943,0,0,0
20944,0,0,0
20945,0,0,0
20946,0,0,0
20947,0,0,0
20948,0,0,0
20949,0,0,0
20950,0,0,0
20951,0,0,0
20952,0,0,0
20958,0,0,0
20959,0,0,0
20960,0,0,0
20961,0,0,0
20962,0,0,0
20963,0,0,0
20964,134,134,134
20965,231,231,231
20966,606,606,606
20967,824,824,824
20969,1081,1081,1081
20970,903,903,903
20971,658,658,658
20972,399,399,399
20973,130,130,130
20974,0,0,0
20975,0,0,0
20976,0,0,0
20977,0,0,0
20978,0,0,0
20980,222,222,222
20981,494,494,494
20982,771,771,771
20983,1037,1037,1037
20984,1250,1250,1250
20985,1395,1395,1395
20986,1465,1465,1465
20987,1463,1463,1463
20988,1310,1310,1310
20989,1112,1112,1112
20991,574,574,574
20992,290,290,290
20993,53,53,53
20994,0,0,0
20995,0,0,0
20996,0,0,0
20997,0,0,0
20998,0,0,0
20999,65,65,65
21000,157,157,157
21003,863,863,863
21004,1113,1113,1113
21005,1341,1341,1341
21006,1487,1487,1487
21007,1535,1535,1535
21008,1501,1501,1501
21009,1360,1360,1360
21010,1166,1166,1166
21011,893,893,893
21012,613,613,613
21016,0,0,0
21017,0,0,0
21018,0,0,0
21019,0,0,0
21020,0,0,0
21021,0,0,0
21022,0,0,0
21023,0,0,0
21024,0,0,0
21025,0,0,0
21036,0,0,0
21037,0,0,0
21038,0,0,0
21039,0,0,0
21040,0,0,0
21041,0,0,0
21042,0,0,0
21043,0,0,0
21044,0,0,0
21045,0,0,0
21048,0,0,0
21049,0,0,0
21050,0,0,0
21051,0,0,0
21052,0,0,0
21053,0,0,0
21054,0,0,0
21055,0,0,0
21056,0,0,0
21057,0,0,0
21059,0,0,0
21060,0,0,0
21061,0,0,0
21062,0,0,0
21063,0,0,0
21064,0,0,0
21065,0,0,0
21066,0,0,0
21067,0,0,0
21068,0,0,0
21070,0,0,0
21071,0,0,0
21072,0,0,0
21073,0,0,0
21074,0,0,0
21075,0,0,0
21076,0,0,0
21077,0,0,0
21078,0,0,0
21079,0,0,0
21082,0,0,0
21083,0,0,0
21084,0,0,0
21085,0,0,0
21086,0,0,0
21087,0,0,0
21088,0,0,0
21089,0,0,0
21090,0,0,0
21091,0,0,0
21094,0,0,0
21095,0,0,0
21096,0,0,0
21097,0,0,0
21098,0,0,0
21099,0,0,0
21100,0,0,0
21101,0,0,0
21102,0,0,0
21103,0,0,0
21106,272,272,272
21107,383,383,383
21108,427,427,427
21109,400,400,400
21110,292,292,292
21111,117,117,117
21112,0,0,0
21113,0,0,0
21114,0,0,0
21115,0,0,0
21117,0,0,0
21118,0,0,0
21119,0,0,0
21120,0,0,0
21121,208,208,208
21122,438,438,438
21123,672,672,672
21124,853,853,853
21125,965,965,965
21126,990,990,990
21139,932,932,932
21140,784,784,784
21141,693,693,693
21142,331,331,331
21143,84,84,84
21144,0,0,0
21145,0,0,0
21146,0,0,0
21147,0,0,0
21148,0,0,0
21151,1722,1722,1722
21152,1424,1424,1424
21153,1118,1118,1118
21154,802,802,802
21155,541,541,541
21156,314,314,314
21157,171,171,171
21158,135,135,135
21159,160,160,160
21160,304,304,304
21162,1423,1423,1423
21163,1707,1707,1707
21164,1932,1932,1932
21165,2096,2096,2096
21166,2175,2175,2175
21167,2157,2157,2157
21168,2047,2047,2047
21169,1966,1966,1966
21170,1600,1600,1600
21171,1317,1317,1317
21173,751,751,751
21174,529,529,529
21175,387,387,387
21176,331,331,331
21177,369,369,369
21178,498,498,498
21179,720,720,720
21180,1005,1005,1005
21181,1325,1325,1325
21182,1467,1467,1467
21184,2194,2194,2194
21185,2357,2357,2357
21186,2435,2435,2435
21187,2415,2415,2415
21188,2306,2306,2306
21189,2112,2112,2112
21190,1841,1841,1841
21191,1535,1535,1535
21192,1237,1237,1237
21193,969,969,969
21202,560,560,560
21203,603,603,603
21204,751,751,751
21205,966,966,966
21206,1265,1265,1265
21207,1597,1597,1597
21208,1930,1930,1930
21209,2221,2221,2221
21210,2462,2462,2462
21211,2624,2624,2624
21214,1408,1408,1408
21215,1136,1136,1136
21216,912,912,912
21217,778,778,778
21218,730,730,730
21219,784,784,784
21220,934,934,934
21221,1163,1163,1163
21222,1443,1443,1443
21223,1569,1569,1569
21225,2517,2517,2517
21226,2679,2679,2679
21227,2762,2762,2762
21228,2737,2737,2737
21229,2630,2630,2630
21230,2434,2434,2434
21231,2176,2176,2176
21232,1877,1877,1877
21233,1574,1574,1574
21234,1285,1285,1285
21238,827,827,827
21239,861,861,861
21240,991,991,991
21241,1210,1210,1210
21242,1489,1489,1489
21243,1802,1802,1802
21244,2119,2119,2119
21245,2407,2407,2407
21246,2657,2657,2657
21247,2830,2830,2830
21250,2735,2735,2735
21251,2543,2543,2543
21252,2290,2290,2290
21253,2001,2001,2001
21254,1699,1699,1699
21255,1430,1430,1430
21256,1198,1198,1198
21257,1023,1023,1023
21258,948,948,948
21259,971,971,971
21261,1785,1785,1785
21262,2066,2066,2066
21263,2293,2293,2293
21264,2490,2490,2490
21265,2624,2624,2624
21266,2671,2671,2671
21267,2622,2622,2622
21268,2476,2476,2476
21269,2263,2263,2263
21270,2000,2000,2000
21278,1399,1399,1399
21279,1283,1283,1283
21280,879,879,879
21281,753,753,753
21282,703,703,703
21283,752,752,752
21284,915,915,915
21285,1173,1173,1173
21286,1502,1502,1502
21287,1871,1871,1871
21290,2911,2911,2911
21291,2701,2701,2701
21292,2427,2427,2427
21293,2134,2134,2134
21294,1823,1823,1823
21295,1535,1535,1535
21296,1315,1315,1315
21297,1163,1163,1163
21298,1104,1104,1104
21299,1135,1135,1135
21301,1966,1966,1966
21302,2259,2259,2259
21303,2515,2515,2515
21304,2752,2752,2752
21305,2906,2906,2906
21306,2978,2978,2978
21307,2952,2952,2952
21308,2822,2822,2822
21309,2619,2619,2619
21310,2350,2350,2350
21325,1463,1463,1463
21326,1230,1230,1230
21327,1076,1076,1076
21328,1005,1005,1005
21329,1040,1040,1040
21330,1167,1167,1167
21331,1374,1374,1374
21332,1694,1694,1694
21333,2018,2018,2018
21334,2331,2331,2331
21338,1127,1127,1127
21339,1060,1060,1060
21340,1073,1073,1073
21341,1130,1130,1130
21342,1407,1407,1407
21343,1666,1666,1666
21344,1953,1953,1953
21345,2263,2263,2263
21346,2529,2529,2529
21347,2755,2755,2755
21349,2815,2815,2815
21350,2613,2613,2613
21351,2354,2354,2354
21352,2235,2235,2235
21353,1744,1744,1744
21354,1467,1467,1467
21355,1230,1230,1230
21356,1070,1070,1070
21357,998,998,998
21358,1039,1039,1039
21360,1647,1647,1647
21361,1945,1945,1945
21362,2261,2261,2261
21363,2543,2543,2543
21364,2662,2662,2662
21365,2963,2963,2963
21366,3047,3047,3047
21367,3016,3016,3016
21368,2881,2881,2881
21369,2683,2683,2683
21371,2123,2123,2123
21372,1811,1811,1811
21373,1535,1535,1535
21374,1307,1307,1307
21375,1143,1143,1143
21376,1065,1065,1065
21377,1057,1057,1057
21378,1205,1205,1205
21379,1402,1402,1402
21380,1670,1670,1670
21383,2277,2277,2277
21384,2559,2559,2559
21385,2819,2819,2819
21386,3003,3003,3003
21387,3095,3095,3095
21388,3067,3067,3067
21389,2943,2943,2943
21390,2748,2748,2748
21391,2637,2637,2637
21392,2182,2182,2182
21395,1575,1575,1575
21396,1315,1315,1315
21397,1151,1151,1151
21398,1074,1074,1074
21399,1101,1101,1101
21400,1227,1227,1227
21401,1429,1429,1429
21402,1710,1710,1710
21403,2004,2004,2004
21404,2322,2322,2322
21406,3137,3137,3137
21407,3117,3117,3117
21408,2967,2967,2967
21409,2761,2761,2761
21410,2479,2479,2479
21411,2185,2185,2185
21412,1871,1871,1871
21413,1581,1581,1581
21414,1326,1326,1326
21415,1155,1155,1155
21417,1104,1104,1104
21418,1237,1237,1237
21419,1431,1431,1431
21420,1709,1709,1709
21421,2005,2005,2005
21422,2319,2319,2319
21423,2602,2602,2602
21424,2845,2845,2845
21425,3024,3024,3024
21426,3127,3127,3127
21430,2962,2962,2962
21431,2887,2887,2887
21432,2481,2481,2481
21433,2210,2210,2210
21434,1907,1907,1907
21435,1623,1623,1623
21436,1375,1375,1375
21437,1210,1210,1210
21438,1123,1123,1123
21439,1142,1142,1142
21443,1745,1745,1745
21444,2037,2037,2037
21445,2191,2191,2191
21446,2650,2650,2650
21447,2868,2868,2868
21448,3032,3032,3032
21449,3120,3120,3120
21450,3090,3090,3090
21451,2941,2941,2941
21452,2736,2736,2736
21454,1590,1590,1590
21455,1357,1357,1357
21456,1278,1278,1278
21457,1126,1126,1126
21458,1146,1146,1146
21459,1264,1264,1264
21460,1456,1456,1456
21461,1725,1725,1725
21462,2023,2023,2023
21463,2331,2331,2331
21465,3023,3023,3023
21466,3121,3121,3121
21467,3113,3113,3113
21468,3057,3057,3057
21469,2767,2767,2767
21470,2492,2492,2492
21471,2201,2201,2201
21472,1903,1903,1903
21473,1627,1627,1627
21474,1382,1382,1382
21477,1133,1133,1133
21478,1152,1152,1152
21479,1264,1264,1264
21480,1458,1458,1458
21481,1735,1735,1735
21482,1855,1855,1855
21483,2355,2355,2355
21484,2637,2637,2637
21485,2890,2890,2890
21486,3071,3071,3071
21490,3021,3021,3021
21491,2816,2816,2816
21492,2542,2542,2542
21493,2244,2244,2244
21494,1923,1923,1923
21495,1632,1632,1632
21496,1502,1502,1502
21497,1187,1187,1187
21498,1086,1086,1086
21499,1088,1088,1088
21501,1934,1934,1934
21502,2256,2256,2256
21503,2531,2531,2531
21504,2781,2781,2781
21505,2961,2961,2961
21506,3056,3056,3056
21507,3057,3057,3057
21508,2902,2902,2902
21509,2707,2707,2707
21510,2445,2445,2445
21512,1835,1835,1835
21513,1535,1535,1535
21514,1297,1297,1297
21515,1115,1115,1115
21516,1014,1014,1014
21517,1023,1023,1023
21518,1135,1135,1135
21519,1325,1325,1325
21520,1433,1433,1433
21521,1901,1901,1901
21528,2502,2502,2502
21529,2752,2752,2752
21530,2928,2928,2928
21531,3024,3024,3024
21532,3011,3011,3011
21533,2896,2896,2896
21534,2704,2704,2704
21535,2432,2432,2432
21536,2143,2143,2143
21537,1826,1826,1826
21542,1232,1232,1232
21543,1442,1442,1442
21544,1715,1715,1715
21545,2007,2007,2007
21546,2326,2326,2326
21547,2611,2611,2611
21548,2864,2864,2864
21549,3047,3047,3047
21550,3107,3107,3107
21551,3139,3139,3139
21554,1614,1614,1614
21555,1363,1363,1363
21556,1194,1194,1194
21557,1109,1109,1109
21558,1121,1121,1121
21559,1234,1234,1234
21560,1321,1321,1321
21561,1707,1707,1707
21562,1984,1984,1984
21563,2301,2301,2301
21565,3035,3035,3035
21566,3130,3130,3130
21567,3094,3094,3094
21568,2951,2951,2951
21569,2736,2736,2736
21570,2455,2455,2455
21571,2156,2156,2156
21572,2012,2012,2012
21573,1556,1556,1556
21574,1303,1303,1303
21576,1054,1054,1054
21577,1079,1079,1079
21578,1199,1199,1199
21579,1392,1392,1392
21580,1668,1668,1668
21581,1973,1973,1973
21582,2299,2299,2299
21583,2592,2592,2592
21584,2864,2864,2864
21585,2960,2960,2960
21590,3198,3198,3198
21591,3063,3063,3063
21592,2864,2864,2864
21593,2607,2607,2607
21594,2301,2301,2301
21595,1978,1978,1978
21596,1683,1683,1683
21597,1410,1410,1410
21598,1223,1223,1223
21599,1095,1095,1095
21601,1488,1488,1488
21602,1776,1776,1776
21603,2085,2085,2085
21604,2368,2368,2368
21605,2624,2624,2624
21606,2801,2801,2801
21607,2887,2887,2887
21608,2871,2871,2871
21609,2753,2753,2753
21610,2549,2549,2549
21617,1632,1632,1632
21618,1346,1346,1346
21619,1089,1089,1089
21620,905,905,905
21621,817,817,817
21622,834,834,834
21623,970,970,970
21624,1199,1199,1199
21625,1511,1511,1511
21626,1856,1856,1856
21631,3127,3127,3127
21632,3016,3016,3016
21633,2863,2863,2863
21634,2624,2624,2624
21635,2341,2341,2341
21636,2032,2032,2032
21637,1746,1746,1746
21638,1488,1488,1488
21639,1297,1297,1297
21640,1198,1198,1198
21645,2219,2219,2219
21646,2487,2487,2487
21647,2738,2738,2738
21648,2919,2919,2919
21649,3021,3021,3021
21650,3022,3022,3022
21651,2910,2910,2910
21652,2718,2718,2718
21653,2608,2608,2608
21654,2150,2150,2150
21661,1003,1003,1003
21662,1008,1008,1008
21663,1125,1125,1125
21664,1318,1318,1318
21665,1589,1589,1589
21666,1894,1894,1894
21667,2213,2213,2213
21668,2342,2342,2342
21669,2763,2763,2763
21670,2929,2929,2929
21674,1825,1825,1825
21675,1568,1568,1568
21676,1325,1325,1325
21677,1153,1153,1153
21678,1100,1100,1100
21679,1066,1066,1066
21680,1159,1159,1159
21681,1328,1328,1328
21682,1574,1574,1574
21683,1853,1853,1853
21685,2862,2862,2862
21686,2960,2960,2960
21687,2943,2943,2943
21688,2832,2832,2832
21689,2747,2747,2747
21690,2368,2368,2368
21691,2091,2091,2091
21692,1769,1769,1769
21693,1473,1473,1473
21694,1221,1221,1221
21696,922,922,922
21697,927,927,927
21698,1039,1039,1039
21699,1230,1230,1230
21700,1491,1491,1491
21701,1795,1795,1795
21702,1936,1936,1936
21703,2403,2403,2403
21704,2662,2662,2662
21705,2846,2846,2846
21707,2941,2941,2941
21708,2832,2832,2832
21709,2636,2636,2636
21710,2368,2368,2368
21711,2071,2071,2071
21712,1745,1745,1745
21713,1446,1446,1446
21714,1187,1187,1187
21715,1102,1102,1102
21716,896,896,896
21724,1047,1047,1047
21725,1254,1254,1254
21726,1534,1534,1534
21727,1849,1849,1849
21728,2159,2159,2159
21729,2429,2429,2429
21730,2691,2691,2691
21731,2873,2873,2873
21732,2975,2975,2975
21733,2961,2961,2961
21736,1037,1037,1037
21737,941,941,941
21738,944,944,944
21739,1062,1062,1062
21740,1255,1255,1255
21741,1522,1522,1522
21742,1654,1654,1654
21743,2157,2157,2157
21744,2432,2432,2432
21745,2687,2687,2687
21748,2960,2960,2960
21749,2842,2842,2842
21750,2657,2657,2657
21751,2397,2397,2397
21752,2112,2112,2112
21753,1808,1808,1808
21754,1523,1523,1523
21755,1408,1408,1408
21756,1075,1075,1075
21757,976,976,976
21763,1083,1083,1083
21764,1269,1269,1269
21765,1531,1531,1531
21766,1846,1846,1846
21767,2166,2166,2166
21768,2459,2459,2459
21769,2727,2727,2727
21770,2918,2918,2918
21771,3034,3034,3034
21772,3053,3053,3053
21777,1309,1309,1309
21778,1165,1165,1165
21779,1091,1091,1091
21780,1097,1097,1097
21781,1194,1194,1194
21782,1362,1362,1362
21783,1460,1460,1460
21784,1892,1892,1892
21785,2201,2201,2201
21786,2477,2477,2477
21788,2915,2915,2915
21789,2717,2717,2717
21790,2451,2451,2451
21791,2145,2145,2145
21792,1817,1817,1817
21793,1685,1685,1685
21794,1245,1245,1245
21795,1061,1061,1061
21796,955,955,955
21797,955,955,955
21799,1246,1246,1246
21800,1494,1494,1494
21801,1798,1798,1798
21802,2128,2128,2128
21803,2421,2421,2421
21804,2686,2686,2686
21805,2880,2880,2880
21806,2938,2938,2938
21807,2986,2986,2986
21808,2873,2873,2873
21810,2417,2417,2417
21811,2125,2125,2125
21812,1803,1803,1803
21813,1498,1498,1498
21814,1221,1221,1221
21815,1015,1015,1015
21816,905,905,905
21817,901,901,901
21818,1005,1005,1005
21819,1094,1094,1094
21822,1777,1777,1777
21823,2096,2096,2096
21824,2371,2371,2371
21825,2626,2626,2626
21826,2805,2805,2805
21827,2899,2899,2899
21828,2896,2896,2896
21829,2802,2802,2802
21830,2624,2624,2624
21831,2361,2361,2361
21835,1456,1456,1456
21836,1178,1178,1178
21837,964,964,964
21838,829,829,829
21839,784,784,784
21840,839,839,839
21841,990,990,990
21842,1232,1232,1232
21843,1510,1510,1510
21844,1813,1813,1813
21851,2619,2619,2619
21852,2607,2607,2607
21853,2505,2505,2505
21854,2337,2337,2337
21855,2091,2091,2091
21856,1848,1848,1848
21857,1584,1584,1584
21858,1360,1360,1360
21859,1151,1151,1151
21860,989,989,989
21863,1735,1735,1735
21864,2058,2058,2058
21865,2337,2337,2337
21866,2606,2606,2606
21867,2795,2795,2795
21868,2896,2896,2896
21869,2886,2886,2886
21870,2774,2774,2774
21871,2559,2559,2559
21872,2301,2301,2301
21874,1073,1073,1073
21875,882,882,882
21876,789,789,789
21877,793,793,793
21878,910,910,910
21879,1109,1109,1109
21880,1395,1395,1395
21881,1705,1705,1705
21882,2013,2013,2013
21883,2299,2299,2299
21885,2732,2732,2732
21886,2829,2829,2829
21887,2816,2816,2816
21888,2709,2709,2709
21889,2512,2512,2512
21890,2240,2240,2240
21891,1930,1930,1930
21892,1600,1600,1600
21893,1295,1295,1295
21894,1018,1018,1018
21970,719,719,719
21971,708,708,708
21972,830,830,830
21973,1006,1006,1006
21974,1272,1272,1272
21975,1565,1565,1565
21976,1881,1881,1881
21977,2181,2181,2181
21978,2437,2437,2437
21979,2627,2627,2627
21981,0,0,0
21982,0,0,0
21983,0,0,0
21984,0,0,0
21985,0,0,0
21986,0,0,0
21987,0,0,0
21988,0,0,0
21989,0,0,0
21990,0,0,0
21992,0,0,0
21993,0,0,0
21994,0,0,0
21995,0,0,0
21996,0,0,0
21997,0,0,0
21998,0,0,0
21999,0,0,0
22000,0,0,0
22001,0,0,0
22003,0,0,0
22004,0,0,0
22005,0,0,0
22006,0,0,0
22007,0,0,0
22008,0,0,0
22009,0,0,0
22010,0,0,0
22011,0,0,0
22012,0,0,0
22016,0,0,0
22017,0,0,0
22018,0,0,0
22019,0,0,0
22020,0,0,0
22021,0,0,0
22022,0,0,0
22023,0,0,0
22024,0,0,0
22025,147,147,147
22029,503,503,503
22030,565,565,565
22031,588,588,588
22032,496,496,496
22033,321,321,321
22034,96,96,96
22035,0,0,0
22036,0,0,0
22037,0,0,0
22038,0,0,0
22040,0,0,0
22041,16,16,16
22042,234,234,234
22043,473,473,473
22044,720,720,720
22045,923,923,923
22046,1073,1073,1073
22047,1133,1133,1133
22048,1094,1094,1094
22049,963,963,963
22053,494,494,494
22054,218,218,218
22055,103,103,103
22056,0,0,0
22057,0,0,0
22058,0,0,0
22059,0,0,0
22060,0,0,0
22061,0,0,0
22062,26,26,26
22066,1116,1116,1116
22067,1330,1330,1330
22068,1419,1419,1419
22069,1516,1516,1516
22070,1456,1456,1456
22071,1301,1301,1301
22072,1059,1059,1059
22073,767,767,767
22074,462,462,462
22075,184,184,184
22081,0,0,0
22082,0,0,0
22083,14,14,14
22084,398,398,398
22085,694,694,694
22086,1037,1037,1037
22087,1346,1346,1346
22088,1616,1616,1616
22089,1807,1807,1807
22090,1918,1918,1918
22092,1086,1086,1086
22093,910,910,910
22094,432,432,432
22095,176,176,176
22096,0,0,0
22097,0,0,0
22098,0,0,0
22099,0,0,0
22100,165,165,165
22101,431,431,431
22103,1426,1426,1426
22104,1712,1712,1712
22105,1809,1809,1809
22106,2082,2082,2082
22107,2112,2112,2112
22108,2033,2033,2033
22109,1865,1865,1865
22110,1616,1616,1616
22111,1305,1305,1305
22112,969,969,969
22114,400,400,400
22115,210,210,210
22116,106,106,106
22117,105,105,105
22118,136,136,136
22119,385,385,385
22120,646,646,646
22121,944,944,944
22122,1290,1290,1290
22123,1616,1616,1616
22126,2140,2140,2140
22127,2282,2282,2282
22128,2322,2322,2322
22129,2253,2253,2253
22130,2096,2096,2096
22131,1841,1841,1841
22132,1723,1723,1723
22133,1203,1203,1203
22134,912,912,912
22135,637,637,637
22138,334,334,334
22139,334,334,334
22140,432,432,432
22141,624,624,624
22142,895,895,895
22143,1216,1216,1216
22144,1555,1555,1555
22145,1863,1863,1863
22146,1995,1995,1995
22147,2346,2346,2346
22149,2205,2205,2205
22150,1950,1950,1950
22151,1647,1647,1647
22152,1306,1306,1306
22153,990,990,990
22154,718,718,718
22155,511,511,511
22156,402,402,402
22157,395,395,395
22158,501,501,501
22161,958,958,958
22162,1295,1295,1295
22163,1633,1633,1633
22164,1951,1951,1951
22165,2230,2230,2230
22166,2445,2445,2445
22167,2559,2559,2559
22168,2593,2593,2593
22169,2502,2502,2502
22170,2323,2323,2323
22174,1762,1762,1762
22175,1425,1425,1425
22176,1134,1134,1134
22177,858,858,858
22178,653,653,653
22179,528,528,528
22180,490,490,490
22181,576,576,576
22182,752,752,752
22183,1023,1023,1023
22186,2355,2355,2355
22187,2559,2559,2559
22188,2705,2705,2705
22189,2730,2730,2730
22190,2639,2639,2639
22191,2454,2454,2454
22192,2178,2178,2178
22193,1830,1830,1830
22194,1439,1439,1439
22195,1079,1079,1079
22197,304,304,304
22198,372,372,372
22199,528,528,528
22200,770,770,770
22201,1074,1074,1074
22202,1411,1411,1411
22203,1739,1739,1739
22204,2027,2027,2027
22205,2245,2245,2245
22206,2371,2371,2371
22214,2322,2322,2322
22215,2259,2259,2259
22216,1862,1862,1862
22217,1587,1587,1587
22218,1245,1245,1245
22219,945,945,945
22220,706,706,706
22221,555,555,555
22222,471,471,471
22223,485,485,485
22225,2371,2371,2371
22226,2605,2605,2605
22227,2747,2747,2747
22228,2798,2798,2798
22229,2731,2731,2731
22230,2559,2559,2559
22231,2316,2316,2316
22232,2010,2010,2010
22233,1670,1670,1670
22234,1335,1335,1335
22237,664,664,664
22238,655,655,655
22239,750,750,750
22240,927,927,927
22241,1205,1205,1205
22242,1518,1518,1518
22243,1867,1867,1867
22244,2189,2189,2189
22245,2485,2485,2485
22246,2766,2766,2766
22248,3016,3016,3016
22249,2989,2989,2989
22250,2754,2754,2754
22251,2506,2506,2506
22252,2199,2199,2199
22253,1846,1846,1846
22254,1505,1505,1505
22255,1200,1200,1200
22256,955,955,955
22257,807,807,807
22263,1001,1001,1001
22264,1264,1264,1264
22265,1386,1386,1386
22266,1941,1941,1941
22267,2253,2253,2253
22268,2549,2549,2549
22269,2768,2768,2768
22270,2907,2907,2907
22271,2929,2929,2929
22272,2860,2860,2860
22275,1535,1535,1535
22276,1396,1396,1396
22277,1019,1019,1019
22278,899,899,899
22279,880,880,880
22280,962,962,962
22281,1138,1138,1138
22282,1392,1392,1392
22283,1696,1696,1696
22284,2030,2030,2030
22286,2990,2990,2990
22287,3019,3019,3019
22288,2935,2935,2935
22289,2772,2772,2772
22290,2514,2514,2514
22291,2230,2230,2230
22292,1906,1906,1906
22293,1602,1602,1602
22294,1323,1323,1323
22295,1105,1105,1105
22297,928,928,928
22298,1012,1012,1012
22299,1199,1199,1199
22300,1298,1298,1298
22301,1778,1778,1778
22302,2128,2128,2128
22303,2443,2443,2443
22304,2742,2742,2742
22305,2977,2977,2977
22306,3141,3141,3141
22308,3070,3070,3070
22309,2887,2887,2887
22310,2624,2624,2624
22311,2320,2320,2320
22312,1979,1979,1979
22313,1840,1840,1840
22314,1372,1372,1372
22315,1162,1162,1162
22316,1011,1011,1011
22317,989,989,989
22320,1245,1245,1245
22321,1503,1503,1503
22322,1809,1809,1809
22323,2147,2147,2147
22324,2457,2457,2457
22325,2751,2751,2751
22326,2992,2992,2992
22327,3084,3084,3084
22328,3202,3202,3202
22329,3106,3106,3106
22331,2304,2304,2304
22332,1936,1936,1936
22333,1588,1588,1588
22334,1258,1258,1258
22335,999,999,999
22336,835,835,835
22337,778,778,778
22338,822,822,822
22339,885,885,885
22340,1230,1230,1230
22348,1855,1855,1855
22349,2176,2176,2176
22350,2480,2480,2480
22351,2707,2707,2707
22352,2871,2871,2871
22353,2939,2939,2939
22354,2903,2903,2903
22355,2768,2768,2768
22356,2530,2530,2530
22357,2271,2271,2271
22361,1216,1216,1216
22362,1362,1362,1362
22363,1594,1594,1594
22364,1884,1884,1884
22365,2208,2208,2208
22366,2519,2519,2519
22367,2811,2811,2811
22368,2912,2912,2912
22369,3215,3215,3215
22370,3255,3255,3255
22372,2385,2385,2385
22373,2045,2045,2045
22374,1731,1731,1731
22375,1430,1430,1430
22376,1203,1203,1203
22377,1066,1066,1066
22378,1035,1035,1035
22379,1050,1050,1050
22380,1278,1278,1278
22381,1535,1535,1535
22383,2501,2501,2501
22384,2811,2811,2811
22385,3047,3047,3047
22386,3216,3216,3216
22387,3251,3251,3251
22388,3159,3159,3159
22389,2969,2969,2969
22390,2709,2709,2709
22391,2589,2589,2589
22392,2074,2074,2074
22401,1455,1455,1455
22402,1218,1218,1218
22403,1076,1076,1076
22404,1040,1040,1040
22405,1106,1106,1106
22406,1266,1266,1266
22407,1518,1518,1518
22408,1819,1819,1819
22409,2149,2149,2149
22410,2463,2463,2463
22414,2195,2195,2195
22415,1927,1927,1927
22416,1667,1667,1667
22417,1453,1453,1453
22418,1296,1296,1296
22419,1263,1263,1263
22420,1275,1275,1275
22421,1408,1408,1408
22422,1640,1640,1640
22423,1917,1917,1917
22425,3071,3071,3071
22426,3255,3255,3255
22427,3313,3313,3313
22428,3233,3233,3233
22429,3043,3043,3043
22430,2927,2927,2927
22431,2467,2467,2467
22432,2132,2132,2132
22433,1812,1812,1812
22434,1515,1515,1515
22436,1117,1117,1117
22437,1072,1072,1072
22438,1137,1137,1137
22439,1297,1297,1297
