pc_time_ms,red_raw,ir_raw,red_filtered,ir_filtered,esp_ts
269,809,907,-0.5,-4.39,16893
269,806,911,-2.31,-3.05,16933
270,811,913,0.8,-1.11,16973
270,806,915,-1.85,0.81,17013
271,814,915,3.02,1.23,17053
473,805,910,-2.07,-2.14,17093
473,807,912,-1.82,-1.45,17133
473,804,922,-3.63,5.57,17173
473,808,914,-1.08,1.48,17213
474,808,906,-0.35,-5.06,17253
677,809,914,0.53,-0.89,17293
677,809,902,0.71,-7.84,17333
678,831,912,15.51,-2.19,17373
678,815,922,7.14,6.14,17413
678,809,909,0.4,-1.04,17453
678,803,906,-5.37,-4.77,17493
874,803,911,-6.36,-1.94,17533
874,814,911,1.33,-1.06,17573
874,807,912,-1.56,-0.08,17613
875,809,909,-0.81,-1.85,17653
875,811,907,0.79,-3.48,17693
1087,805,916,-2.91,2.46,17733
1088,814,917,2.46,4.42,17773
1088,804,922,-3.13,7.9,17813
1088,815,911,3.14,0.7,17853
1088,806,917,-1.61,2.88,17893
1291,796,914,-9.4,1.16,17933
1292,803,909,-5.85,-2.74,17973
1292,792,915,-11.87,0.56,18013
1292,804,920,-4.3,4.7,18053
1292,804,914,-2.03,1.31,18093
1496,809,905,2.07,-5.71,18133
1497,808,913,2.25,-1.61,18173
1497,816,906,7.49,-5.15,18213
1497,809,910,3.46,-2.92,18253
1497,804,912,-1.21,-0.76,18293
1702,803,915,-2.95,1.86,18333
1702,805,916,-1.79,3.04,18373
1702,797,908,-6.73,-2.31,18413
1703,806,914,-1.35,0.58,18453
1703,803,907,-1.9,-3.45,18493
1874,805,908,-0.53,-3.5,18533
1874,812,898,4.57,-9.95,18573
1874,795,904,-5.98,-6.69,18613
1875,803,913,-2.74,0.75,18653
1875,801,907,-3.04,-1.48,18693
2048,795,916,-6.9,4.14,18733
2048,801,907,-3.24,-0.86,18773
2048,808,911,2.66,0.66,18813
2048,786,906,-10.89,-2.39,18853
2049,781,891,-16.74,-13.05,18893
2316,760,876,-30.93,-24.72,18933
2316,741,891,-44.67,-15.46,18973
2316,748,878,-39.63,-20.58,19013
2316,749,872,-34.35,-24.17,19053
2316,750,872,-29.44,-23.03,19093
2316,742,881,-31.11,-14.74,19133
2521,735,882,-33.61,-10.74,19173
2521,751,872,-20.63,-15.56,19213
2522,747,873,-18.32,-14.78,19253
2522,748,874,-15.52,-12.66,19293
2522,745,885,-15.53,-3.66,19333
2725,750,876,-10.85,-7.15,19373
2725,741,877,-14.82,-6.75,19413
2726,744,869,-12.54,-11.46,19453
2726,749,876,-7.55,-6.96,19493
2726,750,866,-4.98,-11.98,19533
2931,750,879,-3.92,-3.47,19573
2931,746,875,-6.01,-3.74,19613
2931,749,877,-4.01,-2.14,19653
2931,752,877,-1.15,-1.56,19693
2932,752,878,-0.33,-0.61,19733
3077,742,885,-6.83,4.39,19773
3077,735,928,-12.6,34.22,19813
3077,733,929,-14.33,39.49,19853
3077,651,784,-68.75,-60.13,19893
3078,659,790,-71.22,-76.01,19933
3442,654,748,-69.19,-101.85,19973
3443,642,753,-70.91,-96.37,20013
3443,623,682,-78.14,-134.64,20053
3443,618,688,-76.72,-128.84,20093
3443,616,659,-71.23,-136.02,20133
3749,604,656,-71.91,-128.35,20173
3749,622,655,-53.89,-116.25,20213
3750,623,663,-44.14,-98.01,20253
3750,628,690,-34.6,-66.98,20293
3750,631,690,-27.26,-53.53,20333
3751,672,722,4.48,-24.09,20373
3751,667,724,8.71,-13.32,20413
3751,675,727,14.41,-7.47,20453
3751,678,756,16.65,14.15,20493
3751,688,749,22.54,13.67,20533
3752,684,754,19.42,15.76,20573
3954,694,756,23.73,16.3,20613
3954,634,605,-17.59,-86.59,20653
3955,642,602,-21.09,-107.12,20693
3955,638,570,-22.87,-124.76,20733
4159,629,567,-27.45,-120.67,20773
4160,640,576,-18.87,-103.39,20813
4160,637,586,-17.15,-83.59,20853
4160,634,555,-17.28,-92.42,20893
4160,639,555,-12.49,-86.83,20933
4161,633,551,-14.27,-80.79,20973
4269,625,561,-18.9,-65.71,21013
4270,630,560,-15.1,-57.05,21053
4270,608,531,-27.68,-69.58,21093
4270,603,526,-31.86,-70.21,21133
4270,576,458,-48.4,-110.21,21173
4475,587,452,-41.05,-114.98,21213
4476,578,440,-41.8,-114.54,21253
4476,577,447,-39.13,-100.04,21293
4476,578,446,-34.48,-88.63,21333
4477,581,448,-28.38,-76.93,21373
4536,562,442,-37.24,-71.53,21413
4680,563,437,-35.65,-67.5,21453
4680,551,432,-40.31,-64.15,21493
4681,545,424,-42.12,-63.28,21533
4681,541,419,-41.71,-61.08,21573
4979,552,424,-30.67,-52.0,21613
4979,548,431,-28.01,-40.62,21653
4979,562,437,-15.55,-30.29,21693
4980,562,435,-11.11,-26.48,21733
4980,591,462,10.47,-5.12,21773
5183,584,469,10.29,5.39,21813
5183,625,501,36.97,29.11,21853
5184,628,505,42.57,35.3,21893
5184,702,582,90.19,85.7,21933
5184,713,591,101.93,97.17,21973
5388,976,864,273.3,275.61,22013
5388,979,880,295.25,307.89,22053
5388,1918,1712,907.9,850.04,22093
5389,1949,1739,1005.85,932.49,22133
5389,4402,3486,2596.7,2050.4,22173
5555,4555,3609,2879.62,2240.58,22213
5555,4723,3739,2820.46,2186.54,22253
5556,15434,12203,9777.46,7685.8,22293
5556,16320,12854,11294.08,8855.05,22333
5556,600621,595433,404043.25,400563.94,22373
5798,600778,595727,468595.81,465241.5,22413
5798,603296,600333,446906.78,445272.81,22453
5798,603334,600415,403733.94,402699.44,22493
5798,603925,601779,359188.19,358911.88,22533
5799,603925,601808,317663.12,317620.0,22573
5799,604030,602146,280475.0,280650.84,22613
6002,604032,602159,247447.73,247671.11,22653
6003,604136,602264,218323.67,218540.75,22693
6005,604121,602260,192559.55,192764.08,22733
6006,604109,602263,169817.31,170011.53,22773
6006,604225,602341,149840.95,149990.69,22813
6207,604233,602347,132173.8,132298.34,22853
6207,604265,602451,116594.91,116751.13,22893
6208,604268,602457,102836.74,102989.77,22933
6208,604232,602458,90671.66,90835.77,22973
6208,604234,602457,79959.67,80110.68,23013
6412,604255,602505,70530.1,70683.29,23053
6413,604248,602507,62200.25,62347.12,23093
6413,604226,602465,54840.0,54959.38,23133
6413,604220,602456,48355.7,48456.0,23173
6414,604117,602272,42573.73,42606.3,23213
6617,604116,602273,37525.13,37539.37,23253
6618,604110,602268,33083.78,33092.88,23293
6618,604101,602264,29168.08,29178.44,23333
6619,604111,602271,25727.83,25735.64,23373
6620,604100,602271,22683.48,22697.41,23413
6823,604091,602271,19996.99,20017.31,23453
6823,604104,602321,17642.09,17687.28,23493
6824,604109,602317,15563.95,15605.53,23533
6824,604098,602365,13720.08,13796.95,23573
6824,604098,602371,12098.25,12181.46,23613
7129,604132,602461,10691.97,10807.5,23653
7129,604129,602463,9433.73,9550.94,23693
7129,604173,602577,8350.58,8505.4,23733
7130,604169,602575,7370.51,7523.13,23773
7130,604197,602681,6520.7,6712.36,23813
7344,604199,602677,5757.92,5939.11,23853
7344,604204,602685,5083.37,5248.68,23893
7345,604193,602694,4477.22,4638.02,23933
7345,604140,602552,3911.18,3997.36,23973
7346,604125,602574,3428.6,3513.65,24013
7346,604136,602573,3025.16,3094.75,24053
7346,604127,602581,2662.34,2733.56,24093
7347,604141,602566,2355.75,2401.88,24133
7347,604130,602617,2072.37,2150.07,24173
7347,604133,602620,1828.18,1907.23,24213
7348,604123,602629,1605.73,1691.18,24253
7641,604121,602635,1412.88,1498.1,24293
7641,604081,602582,1218.24,1287.45,24333
7641,604087,602586,1070.51,1128.53,24373
7641,604064,602582,927.52,990.56,24413
7642,604060,602577,810.57,868.85,24453
7747,604042,602569,700.63,759.57,24493
7748,604043,602559,614.46,661.24,24533
7748,603990,602516,505.26,551.73,24573
7748,604008,602527,447.28,485.07,24613
7749,604005,602520,392.93,422.66,24653
8050,603941,602421,302.98,304.59,24693
8051,603932,602414,248.76,244.59,24733
8051,603682,601917,45.82,-125.77,24773
8052,603667,601912,-19.05,-211.4,24813
8052,603377,601337,-228.94,-602.09,24853
8255,603362,601315,-272.38,-664.16,24893
8255,602814,600353,-629.15,-1271.14,24933
8256,602797,600331,-677.01,-1330.9,24973
8256,602439,599716,-872.85,-1647.43,25013
8256,602424,599689,-858.31,-1605.93,25053
8460,602012,598974,-1059.51,-1941.14,25093
8461,601990,598960,-1035.3,-1870.68,25133
8461,601853,598722,-1033.93,-1855.21,25173
8461,601829,598712,-962.42,-1701.35,25213
8461,601841,598712,-855.14,-1518.99,25253
8665,601721,598512,-836.73,-1479.52,25293
8665,601711,598506,-768.15,-1348.7,25333
8665,601533,598223,-805.87,-1392.41,25373
8666,601530,598211,-749.21,-1293.83,25413
8666,601365,597961,-782.83,-1328.09,25453
8870,601361,597960,-727.76,-1225.16,25493
8871,601310,597885,-686.81,-1146.27,25533
8871,601302,597875,-623.87,-1036.34,25573
8871,601118,597524,-679.2,-1157.49,25613
8871,601112,597508,-639.81,-1100.93,25653
9075,600916,597188,-707.75,-1209.1,25693
9076,600919,597185,-663.05,-1136.12,25733
9076,600913,597183,-599.8,-1023.18,25773
9076,601000,597328,-474.68,-810.82,25813
9076,601007,597333,-398.53,-685.69,25853
9279,601053,597425,-314.74,-534.38,25893
9280,601067,597434,-257.72,-445.19,25933
9280,601280,597798,-78.28,-140.13,25973
9280,601296,597821,-15.81,-36.27,26013
9280,601699,598516,272.43,460.73,26053
9280,601723,598537,337.95,560.67,26093
9586,602226,599430,664.43,1139.51,26133
9586,602231,599442,693.6,1196.6,26173
9587,602493,599847,818.71,1382.48,26213
9587,602493,599847,780.97,1312.32,26253
9587,602648,600080,809.84,1340.69,26293
9894,602642,600094,744.64,1244.03,26333
9894,602628,599942,655.94,1012.29,26373
9894,602614,599932,568.82,861.85,26413
9895,602631,599936,510.38,754.0,26453
9895,602747,600064,530.66,749.4,26493
9895,602761,600062,500.32,683.54,26533
9895,602895,600264,540.65,745.27,26573
9895,602908,600275,513.82,705.21,26613
9896,602990,600372,518.91,700.92,26653
9896,602992,600377,477.71,643.95,26693
10099,603062,600454,474.12,627.07,26733
10099,603075,600456,441.96,571.22,26773
10099,603177,600616,465.18,616.69,26813
10100,603188,600627,439.09,583.38,26853
10100,603284,600767,460.08,620.01,26893
10209,603287,600772,428.53,580.21,26933
10210,603419,600966,473.23,651.76,26973
10210,603414,600985,441.09,627.44,27013
10210,603423,600991,401.82,572.42,27053
10210,603470,601101,389.67,584.28,27093
10420,603475,601100,357.04,537.24,27133
10420,603432,600953,289.78,381.13,27173
10420,603413,600944,235.65,303.69,27213
10421,603347,600783,157.74,150.2,27253
10421,603343,600784,122.1,99.65,27293
10621,603402,600862,142.55,131.05,27333
10621,603407,600854,138.99,122.5,27373
10621,603416,600886,132.49,131.54,27413
10621,603413,600870,117.58,111.89,27453
10622,603365,600776,71.63,34.29,27493
10918,603361,600771,51.35,8.54,27533
10918,603328,600696,19.69,-49.19,27573
10919,603316,600703,2.05,-54.81,27613
10919,603316,600714,-2.61,-44.16,27653
10919,603363,600794,28.12,16.03,27693
10920,603363,600789,33.43,26.4,27733
11031,603420,600875,70.31,84.7,27773
11031,603413,600872,68.95,90.14,27813
11032,603470,600961,101.17,143.84,27853
11032,603464,600963,96.61,146.47,27893
11032,603464,600957,87.33,130.69,27933
11231,603471,600958,82.38,116.39,27973
11231,603323,600619,-25.52,-125.23,28013
11231,603310,600609,-59.12,-182.02,28053
11232,603315,600623,-59.19,-171.47,28093
11232,603319,600621,-51.55,-155.71,28133
11532,603290,600594,-64.84,-156.77,28173
11532,603312,600594,-47.89,-143.8,28213
11532,603306,600574,-43.62,-141.85,28253
11533,603283,600506,-54.35,-175.12,28293
11533,603272,600515,-59.87,-162.63,28333
11737,603278,600512,-52.16,-147.78,28373
11737,603272,600502,-49.81,-138.25,28413
11737,603366,600674,18.24,-8.4,28453
11738,603375,600682,39.82,30.31,28493
11738,603469,600846,105.15,147.85,28533
11942,603477,600845,118.05,164.2,28573
11942,603518,600923,138.94,206.91,28613
11942,603522,600933,135.12,206.85,28653
11943,603607,601075,179.95,285.0,28693
11943,603608,601079,176.72,283.22,28733
12147,603591,601078,149.53,258.2,28773
12147,603568,600993,114.57,172.87,28813
12147,603565,600995,94.11,138.15,28853
12148,603444,600695,-0.39,-84.17,28893
12148,603435,600681,-30.17,-142.28,28933
12352,603374,600564,-76.14,-223.62,28973
12352,603374,600571,-81.24,-220.4,29013
12352,603400,600591,-58.2,-187.55,29053
12353,603395,600593,-50.85,-162.1,29093
12353,603381,600543,-54.16,-175.67,29133
12557,603379,600549,-51.76,-160.23,29173
12558,603413,600604,-23.89,-105.79,29213
12558,603421,600617,-9.47,-74.4,29253
12558,603523,600815,63.6,73.08,29293
12558,603533,600810,83.33,100.51,29333
12558,603541,600828,86.6,111.05,29373
12761,603600,600942,119.82,181.06,29413
12761,603605,600947,121.38,186.73,29453
12761,603678,601073,160.7,257.18,29493
12761,603683,601078,160.4,256.51,29533
12762,603693,601103,153.44,251.52,29573
12966,603695,601115,140.07,237.04,29613
12966,603720,601155,141.76,240.36,29653
12966,603730,601155,136.87,220.86,29693
12966,603673,601032,85.7,114.58,29733
12967,603669,601012,62.93,64.68,29773
13094,603513,600688,-53.15,-171.36,29813
13094,603523,600682,-71.07,-220.2,29853
13094,603585,600801,-27.81,-133.75,29893
13095,603581,600807,-17.3,-96.71,29933
13095,603596,600839,-3.17,-57.72,29973
13376,603610,600825,10.11,-52.49,30013
13376,603606,600819,9.89,-50.77,30053
13376,603644,600884,34.63,-2.3,30093
13377,603644,600886,37.86,11.41,30133
13377,603651,600867,40.22,1.07,30173
13377,603650,600870,36.72,0.42,30213
13580,603702,600983,67.73,76.27,30253
13581,603707,600988,73.17,92.28,30293
13581,603726,601023,81.12,112.04,30333
13581,603731,601025,79.68,108.84,30373
13785,603761,601111,92.75,156.83,30413
13786,603778,601109,99.66,154.27,30453
13786,603817,601228,119.22,220.7,30493
13786,603822,601228,117.45,218.78,30533
13786,603827,601235,110.4,204.49,30573
13990,603816,601224,91.9,176.2,30613
13990,603828,601222,87.55,152.91,30653
13990,603677,600883,-22.53,-94.08,30693
13991,603665,600874,-56.32,-154.18,30733
13991,603619,600782,-91.09,-218.21,30773
14195,603616,600788,-94.07,-211.78,30813
14196,603605,600744,-94.31,-221.91,30853
14196,603610,600733,-83.08,-213.12,30893
14196,603613,600713,-71.13,-206.34,30933
14196,603611,600696,-63.47,-198.69,30973
14196,603493,600476,-135.6,-328.1,31013
14399,603497,600479,-139.58,-330.81,31053
14399,603485,600459,-136.86,-317.0,31093
14400,603482,600457,-126.64,-288.15,31133
14400,603478,600468,-116.1,-249.15,31173
14400,603523,600520,-73.32,-183.35,31213
14604,603508,600530,-66.48,-144.58,31253
14604,603510,600501,-57.81,-142.16,31293
14605,603521,600518,-43.33,-118.17,31333
14605,603425,600314,-100.64,-239.46,31373
14605,603424,600299,-107.21,-259.75,31413
14809,603191,599895,-256.65,-514.84,31453
14810,603177,599882,-281.89,-544.16,31493
14810,602748,599037,-553.16,-1074.33,31533
14810,602740,599020,-579.94,-1128.13,31573
14810,602679,598888,-578.64,-1135.14,31613
15014,602669,598894,-536.19,-1036.95,31653
15014,602727,598959,-441.24,-880.9,31693
15014,602739,598958,-372.01,-768.03,31733
15014,602734,598948,-326.55,-681.59,31773
15015,602673,598844,-328.59,-672.33,31813
15218,602653,598851,-314.83,-608.43,31853
15219,602882,599265,-130.6,-262.36,31893
15219,602890,599284,-67.97,-140.54,31933
15219,603152,599753,129.92,217.65,31973
15220,603159,599768,173.26,299.31,32013
15423,603360,600136,304.81,542.18,32053
15424,603367,600139,316.82,559.39,32093
15424,603528,600439,401.44,718.39,32133
15424,603521,600460,384.0,711.77,32173
15424,603649,600663,433.43,786.65,32213
15628,603646,600670,407.2,743.67,32253
15629,603712,600790,410.65,750.81,32293
15629,603711,600779,376.12,681.81,32333
15629,603572,600473,242.11,400.85,32373
15629,603555,600471,176.61,295.11,32413
15833,603559,600463,147.9,238.3,32453
15833,603582,600524,143.69,244.94,32493
15834,603590,600522,135.9,224.58,32533
15834,603620,600559,142.61,225.41,32573
15834,603627,600567,137.0,211.93,32613
16038,603699,600703,172.44,282.2,32653
16038,603714,600707,176.89,278.67,32693
16038,603842,600952,249.21,419.17,32733
16038,603837,600950,242.98,417.64,32773
16039,603938,601150,288.86,516.6,32813
16039,603939,601158,276.7,503.21,32853
16242,604032,601341,312.85,580.5,32893
16243,604037,601339,298.85,549.56,32933
16243,604075,601421,295.68,550.51,32973
16243,604063,601434,261.81,513.0,33013
16244,604077,601439,240.65,463.6,33053
16447,604107,601519,235.17,465.88,33093
16448,604117,601518,220.69,426.42,33133
16448,604137,601557,211.84,406.76,33173
16448,604139,601559,193.08,368.79,33213
16448,604143,601594,174.75,351.7,33253
16652,604154,601603,162.8,323.78,33293
16652,603979,601227,28.24,36.29,33333
16653,603981,601221,-6.58,-42.97,33373
16653,603939,601167,-43.02,-95.57,33413
16653,603945,601163,-44.55,-103.39,33453
16857,603961,601194,-30.39,-75.75,33493
16857,603964,601192,-22.2,-63.75,33533
16857,604010,601324,12.63,33.51,33573
16857,604022,601319,28.45,51.71,33613
16858,604028,601330,34.03,59.34,33653
17165,604053,601388,49.36,95.25,33693
17165,604053,601392,49.04,98.91,33733
17165,604074,601402,58.95,98.15,33773
17165,604075,601407,57.18,93.06,33813
17165,604149,601567,101.72,191.64,33853
17472,604155,601570,108.32,202.19,33893
17472,604195,601654,127.75,244.28,33933
17472,604193,601654,120.46,234.23,33973
17473,604252,601759,148.14,282.53,34013
17473,604250,601772,141.21,279.59,34053
17473,604316,601862,171.99,315.79,34093
17474,604314,601862,163.81,298.22,34133
17474,604302,601863,139.89,269.27,34173
17474,604337,601925,145.58,281.0,34213
17474,604326,601925,127.36,260.2,34253
17676,604191,601603,21.14,16.24,34293
17677,604180,601579,-14.7,-62.53,34333
17677,604135,601500,-52.75,-130.17,34373
17677,604137,601499,-56.49,-136.81,34413
17678,604158,601509,-38.5,-120.2,34453
17882,604156,601503,-32.06,-109.92,34493
17882,604155,601530,-28.37,-79.87,34533
17882,604157,601526,-23.71,-68.25,34573
17882,604129,601451,-39.37,-110.07,34613
17882,604127,601446,-41.39,-114.65,34653
17883,604047,601282,-92.23,-216.52,34693
18086,604044,601270,-99.2,-231.91,34733
18086,603849,600795,-223.8,-535.94,34773
18086,603838,600763,-243.59,-588.48,34813
18087,603816,600753,-242.73,-558.71,34853
18087,603634,600231,-344.59,-855.44,34893
18291,603624,600219,-347.8,-865.77,34933
18291,602839,598709,-847.63,-1811.62,34973
18291,602808,598651,-922.39,-1935.04,35013
18292,602161,597542,-1298.76,-2549.07,35053
18292,602156,597540,-1286.8,-2489.16,35093
18495,601821,596957,-1400.58,-2656.26,35133
18496,601811,596951,-1317.57,-2477.83,35173
18496,601723,596859,-1244.67,-2285.67,35213
18496,601780,596972,-1082.87,-1968.3,35253
18497,603209,599782,11.2,169.23,35293
18700,603228,599819,297.63,716.33,35333
18701,603671,600667,642.58,1363.99,35373
18701,603671,600670,674.88,1413.35,35413
18702,603677,600667,630.0,1304.31,35453
18702,604037,601459,807.83,1699.9,35493
18808,604054,601481,795.63,1670.35,35533
18808,604367,602309,936.1,2079.2,35573
18808,604364,602306,890.24,2004.13,35613
18809,604241,602010,720.71,1616.75,35653
18809,604253,602017,625.34,1387.65,35693
19018,604160,601955,485.96,1171.15,35733
19018,604154,601950,405.85,1014.49,35773
19018,603358,600623,-184.34,-3.73,35813
19018,603324,600581,-339.78,-287.27,35853
19019,603150,600393,-467.28,-460.68,35893
19220,603154,600381,-457.09,-473.41,35933
19220,602949,599988,-553.89,-701.14,35973
19221,602924,599995,-548.26,-694.4,36013
19221,602939,599986,-490.49,-640.1,36053
19221,603084,600090,-336.91,-502.41,36093
19520,603083,600074,-270.52,-436.17,36133
19520,603080,599967,-233.06,-454.74,36173
19521,603067,599945,-212.69,-435.8,36213
19521,602579,599038,-518.06,-1004.79,36253
19521,602578,599044,-551.61,-1058.7,36293
19522,602533,598956,-543.72,-1042.01,36333
19826,602532,598949,-496.52,-954.56,36373
19827,602517,598888,-452.83,-892.98,36413
19827,602512,598880,-406.94,-807.48,36453
19827,602231,598456,-550.22,-1003.24,36493
19827,602224,598441,-544.43,-977.74,36533
20134,601990,598096,-654.51,-1120.9,36573
20134,601975,598098,-636.9,-1060.81,36613
20134,601981,598097,-574.68,-956.79,36653
20134,601880,597972,-578.5,-934.02,36693
20134,601886,597970,-526.53,-850.8,36733
20135,601782,597837,-538.95,-847.56,36773
20135,601765,597828,-507.98,-781.15,36813
20135,601607,597573,-563.66,-870.15,36853
20135,601605,597555,-531.36,-831.08,36893
20135,601571,597427,-501.26,-837.26,36933
20339,601568,597443,-453.39,-757.34,36973
20339,601847,597877,-215.25,-381.1,37013
20339,601854,597902,-132.63,-237.66,37053
20339,602264,598576,175.32,272.12,37093
20340,602272,598577,243.16,377.8,37133
20543,602272,598609,239.66,393.94,37173
20544,602583,599065,427.93,671.64,37213
20544,602594,599077,446.44,692.69,37253
20544,602647,599151,448.98,689.21,37293
20544,602655,599150,417.14,629.47,37333
20748,602813,599453,480.27,765.29,37373
20749,602819,599459,459.55,738.81,37413
20749,603001,599825,538.02,916.11,37453
20749,603020,599853,525.04,902.07,37493
20749,603357,600404,704.33,1193.23,37533
21055,603344,600401,681.07,1163.46,37573
21055,603156,600066,491.11,832.26,37613
21056,603162,600065,405.97,678.1,37653
21056,603013,599758,249.98,375.49,37693
21056,602990,599729,174.25,248.32,37733
21362,602989,599709,139.83,181.92,37773
21363,602622,598997,-127.66,-329.39,37813
21363,602604,598974,-196.06,-445.42,37853
21363,602667,599031,-154.25,-398.52,37893
21363,602663,599029,-133.47,-354.41,37933
21364,602779,599213,-38.9,-189.54,37973
21364,602785,599219,-7.85,-128.14,38013
21364,602770,599165,-9.43,-138.23,38053
21364,602775,599166,-5.68,-128.34,38093
21364,602920,599415,93.33,52.54,38133
21364,602928,599434,115.74,106.29,38173
21568,603150,599794,260.98,353.18,38213
21568,603157,599802,280.17,390.68,38253
21568,603257,599992,328.61,495.01,38293
21569,603269,599995,321.12,481.39,38333
21569,603288,600062,304.89,482.44,38373
21772,603297,600067,281.13,445.3,38413
21772,603298,600063,252.05,395.74,38453
21773,603314,600128,234.26,393.61,38493
21773,603330,600132,220.76,362.51,38533
21773,603167,599809,89.04,106.64,38573
21977,603159,599797,43.04,25.31,38613
21977,603059,599561,-39.49,-156.11,38653
21977,603043,599558,-67.64,-190.41,38693
21978,602988,599466,-106.0,-244.89,38733
21978,602989,599466,-105.98,-237.82,38773
22182,602880,599307,-170.39,-322.98,38813
22182,602883,599310,-170.13,-315.06,38853
22182,602940,599438,-117.33,-200.31,38893
22182,602947,599453,-89.4,-144.51,38933
22183,602990,599529,-45.89,-67.09,38973
22386,603004,599534,-21.64,-38.66,39013
22387,603002,599537,-15.07,-26.26,39053
22387,603057,599603,24.9,23.55,39093
22388,603034,599609,17.31,38.15,39133
22388,603086,599676,48.94,83.63,39173
22591,603088,599686,54.09,94.74,39213
22592,603132,599786,80.39,156.81,39253
22592,603137,599778,83.6,153.77,39293
22593,602980,599463,-28.36,-72.07,39333
22593,602979,599452,-54.72,-130.07,39373
22796,602974,599422,-60.11,-153.82,39413
22796,602972,599419,-57.69,-148.82,39453
22797,602980,599401,-46.87,-147.04,39493
22797,602970,599402,-46.91,-133.48,39533
22797,602969,599395,-43.62,-123.54,39573
23002,602939,599339,-59.29,-148.29,39613
23002,602941,599348,-56.89,-135.87,39653
23002,602931,599333,-58.19,-131.44,39693
23002,602929,599327,-55.0,-123.25,39733
23003,602908,599320,-63.66,-115.49,39773
23003,602908,599324,-60.41,-101.06,39813
23206,602906,599308,-55.87,-99.74,39853
23207,602899,599314,-54.72,-86.88,39893
23207,602905,599327,-45.74,-67.61,39933
23207,602897,599325,-45.02,-58.38,39973
23208,602916,599368,-28.23,-22.21,40013
23410,602914,599362,-22.99,-15.32,40053
23411,602798,599096,-97.87,-191.34,40093
23411,602795,599080,-110.34,-230.1,40133
23411,602808,599086,-95.45,-216.37,40173
23411,602814,599116,-79.61,-174.42,40213
23615,602815,599124,-68.26,-143.75,40253
23615,603021,599454,79.08,98.25,40293
23616,603009,599465,101.28,158.13,40333
23616,603249,599896,259.85,449.89,40373
23616,603256,599915,282.42,497.91,40413
23821,603530,600410,448.67,801.11,40453
23821,603546,600416,463.24,813.54,40493
23822,603841,600937,626.36,1098.65,40533
23822,603828,600964,605.62,1095.57,40573
23822,604133,601514,754.56,1372.43,40613
24025,604138,601528,731.58,1335.43,40653
24025,604284,601798,762.27,1395.04,40693
24025,604281,601801,703.63,1294.17,40733
24026,604278,601810,627.41,1165.56,40773
24026,604278,601806,555.27,1032.13,40813
24230,604277,601804,489.58,910.15,40853
24230,604216,601657,390.67,703.66,40893
24230,604201,601641,322.81,581.62,40933
24230,603919,601077,88.69,122.2,40973
24230,603918,601066,21.77,-10.84,41013
24435,603798,600852,-77.68,-187.38,41053
24435,603787,600835,-103.49,-227.31,41093
24435,603702,600673,-158.42,-327.13,41133
24435,603706,600674,-156.15,-323.89,41173
24436,603612,600532,-205.69,-391.33,41213
24639,603616,600526,-198.02,-379.23,41253
24640,603592,600498,-195.51,-362.96,41293
24640,603596,600499,-175.66,-327.57,41333
24640,603553,600394,-184.78,-361.68,41373
24640,603530,600399,-186.94,-336.29,41413
24640,603533,600403,-169.67,-298.82,41453
24844,603480,600304,-186.67,-330.8,41493
24845,603476,600299,-177.84,-314.29,41533
24845,603429,600254,-192.26,-313.85,41573
24845,603439,600257,-172.9,-285.19,41613
24845,603432,600243,-158.15,-263.36,41653
25049,603421,600236,-148.46,-240.35,41693
25049,603430,600234,-127.45,-215.64,41733
25049,603411,600236,-124.23,-189.87,41773
25050,603319,600045,-174.86,-295.89,41813
25050,603312,600034,-177.49,-304.95,41853
25254,603147,599725,-274.24,-489.47,41893
25254,603150,599720,-273.33,-497.74,41933
25254,603132,599677,-262.15,-486.73,41973
25255,603132,599692,-237.16,-432.8,42013
25255,603130,599684,-212.24,-388.02,42053
25459,603111,599628,-200.85,-381.74,42093
25459,603097,599632,-190.4,-345.16,42133
25460,603071,599590,-189.23,-335.11,42173
25460,603083,599582,-164.89,-309.72,42213
25460,603069,599571,-154.24,-284.56,42253
25663,603060,599566,-144.62,-257.57,42293
25664,603063,599556,-127.92,-235.74,42333
25664,603061,599562,-114.29,-206.33,42373
25664,603048,599555,-109.95,-186.25,42413
25664,603037,599555,-106.99,-165.4,42453
25868,603039,599559,-95.91,-143.54,42493
25868,603044,599566,-81.63,-121.22,42533
25869,603039,599573,-74.51,-100.68,42573
25869,603054,599609,-56.38,-62.76,42613
25869,603054,599607,-46.99,-49.26,42653
26074,602941,599365,-116.8,-204.62,42693
26074,602923,599345,-136.51,-239.78,42733
26074,602835,599165,-189.21,-349.56,42773
26074,602828,599160,-191.15,-350.89,42813
26075,602837,599194,-169.38,-298.68,42853
26278,602834,599195,-151.66,-259.67,42893
26278,602828,599192,-138.48,-229.97,42933
26278,602838,599185,-116.7,-207.83,42973
26278,602831,599178,-106.11,-189.42,43013
26278,602831,599193,-94.46,-158.71,43053
26279,602849,599233,-71.49,-110.65,43093
26482,602852,599247,-57.64,-79.82,43133
26483,602906,599345,-12.99,0.66,43173
26483,602892,599358,-10.13,29.57,43213
26483,602913,599343,5.61,24.18,43253
26483,602949,599435,33.27,82.7,43293
26688,602947,599433,36.11,89.05,43333
26688,602968,599495,47.92,124.87,43373
26689,602970,599484,48.22,115.91,43413
26689,602987,599531,55.66,135.48,43453
26689,602998,599534,60.21,131.01,43493
26893,602850,599225,-43.35,-89.2,43533
26893,602840,599219,-72.41,-141.0,43573
26893,602837,599189,-75.62,-162.31,43613
26893,602820,599179,-81.46,-160.68,43653
26893,602806,599158,-85.5,-160.8,43693
27097,602817,599169,-71.85,-139.9,43733
27097,602819,599167,-61.02,-124.17,43773
27098,602821,599172,-51.84,-106.37,43813
27098,602821,599163,-45.16,-98.91,43853
27098,602802,599142,-52.48,-102.85,43893
27405,602803,599142,-49.25,-95.11,43933
27405,602843,599218,-17.35,-33.98,43973
27405,602841,599225,-9.16,-11.0,44013
27405,602866,599289,10.46,38.78,44053
27406,602871,599285,17.84,45.3,44093
27613,602874,599289,20.2,45.75,44133
27613,602871,599301,17.08,50.09,44173
27614,602886,599365,25.01,89.99,44213
27614,602897,599369,32.31,95.12,44253
27614,602911,599401,40.78,109.89,44293
27614,602902,599391,33.41,97.62,44333
27614,602743,599048,-78.26,-144.6,44373
27614,602739,599045,-102.35,-195.21,44413
27615,602739,599034,-99.8,-198.81,44453
27615,602724,599017,-100.81,-194.41,44493
27916,602726,599007,-91.18,-183.58,44533
27916,602729,599015,-79.09,-159.96,44573
27917,602726,599023,-71.39,-135.13,44613
27917,602780,599081,-27.04,-78.47,44653
27917,602775,599085,-17.04,-54.9,44693
28121,602742,599042,-35.26,-73.31,44733
28122,602745,599054,-34.85,-63.66,44773
28122,602799,599147,4.56,6.71,44813
28122,602792,599134,9.34,15.07,44853
28123,602822,599210,29.95,67.08,44893
28123,602829,599203,37.32,69.71,44933
28326,602816,599209,27.3,68.53,44973
28327,602848,599265,44.02,100.12,45013
28327,602859,599259,51.89,95.59,45053
28327,602869,599305,56.23,117.27,45093
28327,602869,599301,52.56,110.09,45133
28531,602887,599337,59.26,123.25,45173
28531,602882,599333,52.53,113.49,45213
28531,602706,598978,-72.04,-137.58,45253
28531,602698,598972,-102.58,-192.94,45293
28531,602624,598822,-151.38,-291.53,45333
28735,602619,598820,-154.17,-293.03,45373
28736,602623,598838,-139.19,-256.47,45413
28736,602617,598833,-127.66,-229.0,45453
28736,602602,598796,-124.08,-227.65,45493
28736,602617,598799,-102.61,-206.07,45533
28940,602575,598774,-116.77,-200.07,45573
28941,602587,598762,-102.42,-189.76,45613
28941,602575,598765,-98.26,-169.12,45653
28941,602607,598799,-67.37,-126.82,45693
28941,602601,598809,-57.97,-98.71,45733
29146,602616,598848,-40.59,-57.06,45773
29146,602613,598849,-34.89,-41.14,45813
29146,602625,598872,-22.44,-18.19,45853
29146,602625,598878,-17.43,-6.89,45893
29146,602664,598942,11.56,39.64,45933
29351,602657,598943,13.12,48.63,45973
29351,602592,598791,-31.31,-55.57,46013
29351,602580,598781,-47.91,-83.73,46053
29351,602467,598551,-124.1,-238.54,46093
29352,602466,598559,-133.35,-251.91,46133
29556,602496,598606,-104.22,-202.31,46173
29556,602492,598630,-90.79,-156.62,46213
29556,602499,598618,-75.02,-140.03,46253
29556,602517,598663,-52.64,-93.76,46293
29557,602529,598663,-34.46,-74.24,46333
29759,602521,598657,-32.37,-67.11,46373
29760,602514,598654,-33.82,-61.66,46413
29760,602529,598679,-21.27,-38.19,46453
29761,602534,598678,-12.93,-29.79,46493
29761,602587,598790,25.95,50.25,46533
29761,602582,598783,30.1,61.4,46573
29964,602592,598825,35.39,87.27,46613
29965,602602,598824,40.42,85.73,46653
29966,602622,598866,51.78,106.38,46693
29966,602619,598860,48.2,98.6,46733
29966,602640,598906,57.36,119.22,46773
30169,602634,598918,50.74,122.44,46813
30169,602641,598925,49.54,117.61,46853
30169,602491,598608,-55.95,-106.93,46893
30170,602486,598601,-81.06,-159.02,46933
30170,602401,598433,-137.74,-271.76,46973
30374,602401,598438,-140.35,-273.75,47013
30374,602422,598467,-115.02,-231.62,47053
30374,602421,598468,-99.6,-200.8,47093
30374,602454,598528,-65.06,-135.66,47133
30374,602453,598530,-51.58,-106.54,47173
30579,602442,598520,-51.27,-96.97,47213
30579,602446,598525,-44.13,-83.01,47253
30580,602489,598606,-9.61,-17.98,47293
30580,602485,598609,-2.82,1.89,47333
30580,602517,598646,20.64,31.59,47373
30784,602499,598668,12.69,51.2,47413
30784,602515,598668,20.34,51.82,47453
30784,602578,598772,63.02,117.55,47493
30784,602575,598781,66.41,130.16,47533
30785,602594,598827,74.42,153.31,47573
30988,602603,598821,76.18,142.16,47613
30989,602611,598863,75.59,155.62,47653
30989,602610,598858,68.4,142.47,47693
30989,602527,598693,4.9,16.07,47733
30989,602526,598685,-12.06,-22.43,47773
31193,602398,598437,-101.51,-197.13,47813
31193,602393,598424,-118.75,-233.04,47853
31194,602448,598515,-76.0,-161.12,47893
31194,602442,598515,-62.94,-129.43,47933
31194,602450,598521,-48.89,-106.52,47973
31398,602446,598522,-43.95,-91.12,48013
31399,602460,598541,-29.61,-66.76,48053
31399,602452,598533,-28.85,-60.38,48093
31399,602459,598534,-21.49,-53.01,48133
31399,602482,598569,-2.35,-23.12,48173
31399,602477,598574,-0.74,-10.34,48213
31603,602511,598649,22.65,44.28,48253
31603,602522,598658,34.02,60.3,48293
31603,602574,598758,68.98,126.52,48333
31603,602576,598759,73.28,133.18,48373
31604,602603,598826,86.33,168.66,48413
31808,602598,598827,78.98,163.99,48453
31808,602658,598927,110.85,216.32,48493
31808,602662,598932,112.18,214.53,48533
31808,602648,598932,93.62,195.97,48573
31809,602521,598674,-4.48,1.13,48613
32012,602526,598653,-25.33,-62.06,48653
32013,602512,598645,-37.88,-78.08,48693
32013,602514,598643,-36.43,-76.89,48733
32013,602523,598659,-26.98,-59.31,48773
32014,602526,598657,-20.25,-51.25,48813
32218,602505,598648,-30.99,-50.96,48853
32218,602516,598641,-23.68,-51.31,48893
32218,602513,598647,-21.87,-43.01,48933
32218,602511,598647,-20.85,-37.3,48973
32218,602568,598765,19.47,46.75,49013
32336,602576,598775,33.34,70.65,49053
32337,602572,598781,31.32,74.7,49093
32337,602566,598770,24.07,62.01,49133
32337,602608,598861,48.53,114.86,49173
32337,602616,598862,55.96,119.04,49213
32627,602612,598870,50.39,115.45,49253
32627,602629,598899,56.11,124.31,49293
32627,602632,598894,54.83,112.68,49333
32627,602528,598691,-20.08,-36.43,49373
32628,602525,598684,-39.22,-75.47,49413
32832,602452,598545,-89.89,-172.49,49453
32833,602462,598558,-88.25,-173.53,49493
32833,602503,598630,-52.76,-110.61,49533
32833,602508,598633,-36.05,-83.5,49573
32833,602530,598678,-14.0,-39.31,49613
33036,602532,598676,-5.95,-26.23,49653
33037,602530,598659,-4.76,-32.2,49693
33037,602516,598665,-13.5,-26.93,49733
33037,602531,598706,-4.43,4.27,49773
33037,602548,598697,9.66,5.73,49813
33037,602554,598685,16.4,-2.45,49853
33241,602585,598779,37.58,58.95,49893
33241,602594,598785,45.78,73.43,49933
33242,602652,598894,83.03,144.21,49973
33242,602651,598894,84.71,149.85,50013
33242,602674,598940,93.46,169.53,50053
33446,602670,598947,85.08,164.86,50093
33446,602713,599032,104.75,206.94,50133
33447,602710,599033,98.77,200.66,50173
33447,602547,598669,-20.8,-62.88,50213
33447,602530,598667,-60.42,-125.07,50253
33652,602531,598648,-64.65,-142.86,50293
33652,602537,598637,-56.19,-142.64,50333
33652,602516,598661,-63.41,-114.47,50373
33653,602547,598666,-39.03,-94.29,50413
33653,602539,598654,-34.93,-89.35,50453
33855,602478,598512,-72.04,-176.2,50493
33856,602471,598497,-79.98,-193.23,50533
33856,602364,598334,-147.3,-290.89,50573
33856,602373,598329,-145.67,-294.2,50613
33856,602425,598432,-97.97,-200.81,50653
34060,602430,598444,-74.35,-152.31,50693
34061,602608,598790,57.69,105.6,50733
34061,602605,598795,83.94,164.8,50773
34061,602632,598862,101.61,210.83,50813
34061,602632,598861,97.51,203.87,50853
34265,602632,598891,88.25,205.08,50893
34266,602637,598896,81.83,191.42,50933
34266,602649,598884,81.35,163.75,50973
34266,602594,598835,37.33,110.01,51013
34266,602580,598823,13.78,79.11,51053
34470,602449,598531,-81.55,-131.86,51093
34470,602446,598516,-100.58,-183.81,51133
34471,602479,598565,-74.61,-148.36,51173
34471,602477,598570,-63.13,-123.55,51213
34472,602449,598516,-73.81,-143.27,51253
34675,602455,598536,-66.21,-122.65,51293
34675,602470,598550,-48.63,-97.68,51333
34675,602466,598570,-42.76,-69.69,51373
34676,602464,598518,-38.99,-91.73,51413
34676,602453,598526,-42.19,-84.15,51453
34880,602490,598608,-14.49,-19.94,51493
34880,602497,598614,-1.57,1.91,51533
34880,602558,598720,42.85,78.6,51573
34881,602551,598742,45.66,105.99,51613
34881,602564,598736,51.27,99.81,51653
34881,602603,598838,74.61,158.56,51693
35085,602610,598831,78.88,155.16,51733
35085,602701,599038,134.57,280.53,51773
35086,602700,599046,136.5,293.68,51813
35086,602628,598870,76.98,153.76,51853
35087,602618,598874,48.82,108.33,51893
35290,602573,598777,7.29,22.47,51933
35290,602576,598781,-1.7,1.7,51973
35290,602610,598834,19.02,32.02,52013
35291,602616,598856,26.73,51.8,52053
35291,602787,599075,141.5,199.75,52093
35494,602775,599070,150.25,216.69,52133
35494,602744,598974,118.95,138.03,52173
35495,602733,598983,93.61,112.66,52213
35495,602747,598985,88.81,98.11,52253
35495,602823,599118,131.25,175.69,52293
35699,602823,599128,130.81,187.03,52333
35699,602789,599099,96.76,154.61,52373
35700,602781,599071,74.66,114.52,52413
35700,602685,598944,-1.83,9.29,52453
35700,602683,598945,-22.19,-17.23,52493
35904,602659,598967,-41.57,-7.6,52533
35904,602661,598962,-41.61,-7.96,52573
35904,602596,598838,-81.87,-90.83,52613
35905,602597,598857,-84.36,-91.22,52653
35905,602804,599175,61.54,130.51,52693
36108,602815,599178,100.32,177.16,52733
36109,602825,599213,108.28,197.47,52773
36109,602839,599204,110.6,179.78,52813
36109,602836,599194,99.76,153.43,52853
36109,602855,599248,101.47,170.19,52893
36313,602863,599265,98.66,171.51,52933
36314,602899,599334,113.87,203.75,52973
36314,602888,599334,100.64,194.62,53013
36314,602922,599410,111.66,227.03,53053
36314,602929,599399,109.74,208.65,53093
36314,602894,599391,76.44,181.0,53133
36518,602897,599397,63.63,162.79,53173
36518,602866,599371,34.2,126.96,53213
36519,602867,599370,24.61,106.58,53253
36519,602872,599402,23.47,113.97,53293
36724,602870,599397,19.89,102.85,53333
36726,602858,599391,9.25,87.31,53373
36726,602709,599049,-94.49,-154.2,53413
36726,602692,599044,-124.0,-205.16,53453
36726,602682,599037,-127.63,-205.26,53493
36727,602683,599028,-117.11,-194.04,53533
36928,602709,599083,-87.09,-137.85,53573
36928,602711,599091,-70.87,-106.67,53613
36928,602797,599246,-2.92,14.51,53653
36928,602801,599251,17.08,47.11,53693
36929,602824,599297,36.2,82.24,53733
37133,602836,599291,46.0,80.07,53773
37148,602877,599398,72.22,144.8,53813
37148,602880,599391,74.72,144.12,53853
37149,602926,599474,100.03,187.59,53893
37149,602918,599488,92.51,192.06,53933
37338,602936,599512,94.93,193.15,53973
37338,602934,599513,86.21,177.76,54013
37339,602928,599507,72.68,154.88,54053
37339,602932,599531,65.88,152.15,54093
37339,602933,599524,59.24,133.89,54133
37542,602773,599184,-55.12,-110.84,54173
37542,602775,599175,-77.83,-168.96,54213
37543,602770,599158,-80.31,-180.73,54253
37543,602761,599170,-80.22,-160.36,54293
37543,602811,599262,-39.78,-79.76,54333
37747,602812,599263,-25.64,-52.14,54373
37747,602842,599317,0.26,-4.44,54413
37747,602851,599325,12.82,13.29,54453
37748,602878,599370,33.09,46.91,54493
37748,602870,599380,29.98,58.13,54533
37952,602921,599483,61.0,125.37,54573
37953,602922,599489,64.27,135.66,54613
37953,602922,599487,59.65,125.44,54653
37953,602970,599556,85.74,158.71,54693
37953,602971,599561,85.75,157.05,54733
38157,602992,599614,92.62,179.04,54773
38157,602993,599624,87.21,176.16,54813
38158,602981,599603,70.47,146.44,54853
38158,602976,599598,56.91,123.28,54893
38159,602829,599276,-50.25,-109.75,54933
38361,602831,599270,-71.54,-162.92,54973
38362,602849,599301,-58.72,-141.69,55013
38362,602830,599300,-63.31,-125.08,55053
38362,602824,599276,-63.21,-126.49,55093
38363,602821,599290,-59.87,-106.71,55133
38363,602811,599265,-60.67,-109.55,55173
38567,602805,599273,-59.8,-95.62,55213
38567,602803,599256,-55.84,-95.51,55253
38567,602819,599293,-39.33,-62.46,55293
38567,602827,599291,-26.54,-50.24,55333
38568,602810,599292,-32.5,-42.22,55373
38771,602828,599291,-19.11,-37.33,55413
38771,602823,599341,-17.51,0.69,55453
38772,602839,599348,-4.88,14.88,55493
38772,602825,599345,-10.72,15.2,55533
38772,602835,599342,-4.55,11.96,55573
38976,602703,599061,-91.43,-179.01,55613
38976,602677,599054,-123.02,-216.56,55653
38976,602637,598958,-147.5,-272.26,55693
38977,602642,598956,-137.78,-264.66,55733
38977,602652,598991,-117.0,-216.8,55773
39180,602648,599006,-104.59,-176.41,55813
39181,602649,599015,-91.97,-145.3,55853
39181,602671,599046,-66.21,-104.3,55893
39181,602676,599047,-50.78,-84.55,55933
39181,602657,599015,-55.45,-93.97,55973
39386,602664,599018,-47.17,-86.43,56013
39386,602689,599089,-24.33,-29.41,56053
39386,602682,599085,-21.2,-15.29,56093
39386,602727,599165,11.66,43.41,56133
39387,602726,599169,18.26,57.18,56173
39590,602741,599215,28.43,86.79,56213
39590,602739,599210,27.26,83.47,56253
39591,602655,599027,-31.88,-47.6,56293
39591,602649,599019,-48.04,-81.88,56333
39591,602646,599000,-50.06,-96.35,56373
39796,602563,598844,-102.26,-196.9,56413
39796,602557,598834,-110.69,-212.22,56453
39796,602577,598863,-90.04,-178.58,56493
39796,602578,598873,-76.57,-148.3,56533
39797,602601,598927,-51.21,-91.85,56573
39797,602605,598915,-37.81,-78.01,56613
40000,602605,598933,-31.3,-55.8,56653
40000,602611,598943,-22.98,-38.81,56693
40000,602632,598991,-4.81,1.09,56733
40000,602641,598989,6.26,9.66,56773
40001,602680,599056,34.74,56.12,56813
40205,602670,599066,32.2,69.69,56853
40205,602705,599144,52.39,119.76,56893
40205,602705,599155,53.02,129.59,56933
40205,602704,599141,48.06,111.67,56973
40206,602695,599109,36.66,76.21,57013
40410,602688,599109,26.07,60.83,57053
40411,602529,598768,-85.88,-177.71,57093
40411,602524,598777,-110.08,-216.46,57133
40412,602552,598799,-88.05,-193.06,57173
40412,602547,598811,-78.39,-162.83,57213
40615,602571,598861,-53.18,-107.84,57253
40615,602575,598862,-39.65,-84.22,57293
40616,602571,598854,-35.62,-76.56,57333
40616,602567,598845,-34.32,-74.2,57373
40616,602580,598880,-22.35,-43.78,57413
40819,602584,598890,-14.8,-25.7,57453
40819,602622,598951,13.91,22.06,57493
40819,602612,598947,13.24,29.48,57533
40820,602608,598972,9.24,45.73,57573
40820,602613,598967,10.85,42.55,57613
41002,602618,598970,13.7,40.2,57653
41003,602650,599036,34.79,80.61,57693
41003,602648,599039,35.82,86.0,57733
41003,602644,599038,30.36,79.34,57773
41003,602652,599032,31.8,66.97,57813
41229,602452,598629,-105.13,-213.11,57853
41245,602454,598624,-129.23,-268.73,57893
41245,602480,598667,-106.86,-231.03,57933
41246,602479,598678,-92.91,-194.61,57973
41246,602505,598719,-64.04,-141.44,58013
41433,602502,598714,-53.4,-119.5,58053
41434,602504,598725,-44.84,-96.53,58093
41434,602506,598722,-37.6,-84.61,58133
41434,602512,598737,-28.57,-64.37,58173
41434,602522,598735,-17.11,-55.18,58213
41638,602517,598741,-16.12,-44.17,58253
41639,602587,598848,32.62,34.38,58293
41639,602586,598849,41.44,51.86,58333
41639,602604,598903,52.24,88.18,58373
41639,602607,598898,52.6,86.47,58413
41843,602613,598907,52.29,84.87,58453
41843,602599,598902,38.33,73.89,58493
41843,602578,598851,17.47,30.56,58533
41844,602569,598833,4.69,4.98,58573
41844,602424,598514,-96.51,-216.59,58613
41844,602430,598527,-109.73,-245.1,58653
42048,602459,598580,-84.23,-195.89,58693
42048,602458,598592,-71.42,-158.92,58733
42048,602459,598583,-61.47,-142.24,58773
42049,602498,598659,-27.55,-74.9,58813
42049,602498,598656,-16.74,-53.72,58853
42253,602482,598621,-23.36,-67.41,58893
42253,602478,598629,-25.81,-59.71,58933
42253,602527,598703,8.75,-2.98,58973
42253,602518,598714,10.66,18.95,59013
42254,602558,598777,37.16,65.24,59053
42362,602569,598783,48.08,75.39,59093
42363,602608,598868,73.04,128.74,59133
42363,602612,598871,75.83,133.3,59173
42364,602653,598934,97.67,165.61,59213
42364,602647,598943,90.82,165.76,59253
42662,602675,598981,100.33,177.42,59293
42663,602674,598958,93.52,149.87,59333
42663,602666,598965,78.51,135.02,59373
42664,602489,598567,-51.05,-148.06,59413
42664,602484,598570,-82.58,-204.63,59453
42868,602524,598638,-56.59,-155.76,59493
42868,602526,598644,-43.99,-126.23,59533
42868,602566,598721,-10.17,-56.33,59573
42869,602573,598740,3.92,-21.27,59613
42869,602595,598746,21.93,-6.62,59653
43072,602592,598734,22.55,-10.41,59693
43072,602621,598795,40.31,30.57,59733
43072,602624,598799,43.36,40.95,59773
43073,602684,598892,80.88,102.68,59813
43073,602679,598911,80.1,122.32,59853
43277,602710,598954,94.07,145.88,59893
43277,602716,598960,93.66,143.47,59933
43277,602728,599015,93.72,167.77,59973
43277,602724,599017,83.12,161.06,60013
43278,602744,599019,86.92,147.07,60053
43482,602758,599064,89.94,161.43,60093
43482,602759,599064,83.7,151.4,60133
43483,602635,598796,-8.34,-44.34,60173
43483,602622,598778,-39.55,-101.85,60213
43483,602539,598599,-99.87,-228.14,60253
43483,602541,598594,-105.24,-243.95,60293
43686,602572,598660,-76.8,-182.86,60333
43687,602563,598645,-69.24,-162.18,60373
43687,602598,598711,-37.96,-98.84,60413
43687,602594,598704,-29.62,-79.34,60453
43687,602586,598651,-30.37,-103.36,60493
43891,602574,598661,-36.08,-93.99,60533
43891,602606,598686,-12.92,-66.86,60573
43892,602582,598687,-22.2,-53.7,60613
43892,602609,598698,-4.45,-38.46,60653
43892,602605,598720,-2.27,-16.55,60693
44096,602603,598712,-2.86,-15.07,60733
44096,602617,598740,6.67,5.49,60773
44097,602619,598735,9.82,6.75,60813
44097,602651,598801,31.31,50.92,60853
44097,602647,598804,31.4,59.75,60893
44167,602541,598583,-42.61,-91.89,60933
44167,602532,598565,-63.62,-134.28,60973
44168,602457,598401,-114.02,-243.97,61013
44168,602462,598406,-113.64,-247.5,61053
44505,602490,598468,-85.13,-185.77,61093
44506,602481,598465,-76.81,-156.6,61133
44506,602551,598531,-21.09,-91.67,61173
44506,602525,598554,-22.81,-52.14,61213
44506,602533,598544,-15.96,-44.49,61253
44507,602529,598527,-15.52,-50.31,61293
44710,602542,598537,-5.39,-40.79,61333
44711,602558,598597,8.39,5.45,61373
44711,602560,598587,12.48,9.85,61413
44711,602599,598677,38.73,70.71,61453
44711,602610,598681,49.42,82.73,61493
45018,602629,598746,60.76,122.47,61533
45018,602641,598734,66.52,114.08,61573
45018,602670,598825,81.83,163.6,61613
45018,602688,598825,90.91,162.15,61653
45019,602504,598446,-38.4,-107.0,61693
45325,602512,598437,-62.22,-171.59,61733
45325,602510,598451,-64.26,-163.82,61773
45326,602545,598512,-35.81,-107.01,61813
45326,602541,598511,-28.36,-84.35,61853
45326,602592,598590,10.25,-18.32,61893
45326,602583,598596,13.04,3.79,61933
45326,602607,598629,28.8,31.28,61973
45327,602605,598619,28.91,28.77,62013
45327,602645,598679,53.45,66.12,62053
45327,602638,598694,50.38,80.01,62093
45327,602701,598786,87.77,138.67,62133
45529,602690,598793,82.37,146.4,62173
45530,602737,598846,105.72,171.6,62213
45530,602736,598854,101.96,168.8,62253
45530,602764,598903,111.24,186.88,62293
45530,602766,598912,105.52,181.65,62333
45734,602756,598839,88.45,115.87,62373
45735,602726,598844,56.49,92.95,62413
45735,602735,598836,49.76,73.98,62453
45735,602505,598347,-110.97,-266.2,62493
45736,602506,598345,-141.24,-330.45,62533
45939,602537,598378,-116.04,-296.43,62573
45940,602538,598380,-99.19,-261.54,62613
45940,602654,598563,-8.48,-107.5,62653
45940,602653,598560,14.28,-61.72,62693
45940,602637,598492,8.07,-90.76,62733
46144,602642,598495,9.16,-88.4,62773
46145,602679,598551,33.52,-42.61,62813
46145,602682,598552,38.85,-26.89,62853
46145,602651,598530,16.02,-35.48,62893
46145,602658,598525,13.66,-38.01,62933
46349,602529,598347,-74.91,-155.23,62973
46349,602530,598338,-90.12,-177.61,63013
46350,602530,598335,-86.36,-170.25,63053
46350,602558,598396,-59.3,-112.96,63093
46350,602559,598396,-46.83,-89.04,63133
46554,602737,598756,80.11,166.84,63173
46554,602749,598785,113.26,236.47,63213
46554,602770,598811,126.16,251.49,63253
46554,602760,598795,112.05,223.27,63293
46555,602462,598244,-101.63,-173.62,63333
46758,602462,598244,-146.68,-258.58,63373
46759,602317,598049,-243.21,-389.33,63413
46759,602317,598043,-246.87,-393.32,63453
46759,602315,598055,-228.25,-353.01,63493
46759,602318,598064,-202.32,-307.05,63533
46963,602414,598241,-114.13,-150.38,63573
46963,602405,598248,-88.42,-93.66,63613
46964,602407,598259,-73.12,-64.05,63653
46964,602451,598311,-33.51,-16.27,63693
46964,602444,598317,-25.46,1.21,63733
46964,602450,598334,-17.25,16.87,63773
47168,602452,598335,-12.37,20.11,63813
47168,602442,598330,-16.82,15.84,63853
47169,602461,598332,-3.69,14.71,63893
47169,602499,598409,25.52,65.01,63933
47169,602499,598409,30.7,72.12,63973
47373,602532,598455,51.61,98.82,64013
47373,602529,598463,50.49,102.58,64053
47373,602367,598144,-63.12,-119.91,64093
47374,602364,598124,-88.33,-179.08,64133
47374,602361,598114,-89.23,-185.59,64173
