ts,red_raw,ir_raw,red_f,ir_f,bpm,spo2
18594,475,424,-0.75,-0.1,0.0,97.5
18615,469,417,-0.75,-0.0,0.0,96.3
18636,471,418,-0.78,0.03,76.9,95.4
18657,469,414,-0.77,0.05,76.9,98.4
18678,470,421,-0.72,-0.04,76.5,96.7
18700,470,427,-0.6,-0.15,81.9,97.9
18723,473,425,-0.5,-0.15,86.2,95.9
18744,467,419,-0.37,-0.0,84.0,95.2
18765,477,411,-0.41,0.18,81.8,93.3
18787,472,419,-0.37,0.24,80.1,91.1
18808,482,412,-0.49,0.38,78.0,86.4
18829,474,423,-0.52,0.34,77.4,82.9
18850,477,424,-0.57,0.23,76.9,85.4
18871,471,424,-0.52,0.04,76.5,94.0
18892,475,407,-0.55,0.0,75.9,91.9
18925,469,420,-0.47,-0.22,75.7,93.4
18947,469,423,-0.34,-0.3,75.6,95.6
18968,472,421,-0.21,-0.3,75.4,95.5
18990,464,418,0.05,-0.29,75.4,90.4
19011,466,425,0.25,-0.44,75.3,92.8
19032,471,427,0.36,-0.61,76.0,97.1
19053,469,417,0.49,-0.58,75.8,90.5
19074,472,418,0.51,-0.48,75.7,88.0
19097,476,415,0.42,-0.28,70.7,86.4
19129,476,414,0.27,-0.06,66.7,90.9
19156,473,412,0.09,0.06,63.5,92.6
19179,471,409,-0.07,0.13,60.8,96.1
19200,476,414,-0.27,0.1,58.8,91.5
19222,481,420,-0.45,0.06,57.4,83.6
19244,477,411,-0.45,0.19,56.1,90.8
19265,475,410,-0.41,0.21,55.1,92.7
19286,470,414,-0.25,0.08,54.2,93.9
19314,482,423,-0.18,-0.19,58.4,97.4
19337,471,408,0.12,-0.28,56.9,93.8
19359,472,414,0.38,-0.55,55.8,93.2
19380,472,414,0.58,-0.79,59.7,92.5
19403,471,406,0.74,-0.84,57.9,87.5
19424,472,407,0.8,-0.86,56.5,88.6
19445,472,412,0.8,-0.85,55.4,88.9
19466,473,408,0.77,-0.69,54.5,89.1
19487,472,412,0.75,-0.56,53.9,90.2
19508,473,421,0.68,-0.52,58.1,96.6
19539,466,412,0.62,-0.39,63.2,93.3
19561,472,415,0.44,-0.34,67.2,94.9
19583,473,415,0.27,-0.32,68.8,97.3
19605,470,412,0.17,-0.23,65.4,94.4
19626,474,423,0.01,-0.34,67.3,97.9
19649,463,407,-0.02,-0.25,68.1,91.1
19671,470,411,-0.12,-0.2,68.8,92.0
19692,472,412,-0.18,-0.12,69.3,92.7
19714,472,414,-0.2,0.03,69.6,92.5
19746,476,406,-0.2,0.31,69.9,89.3
19768,471,407,-0.19,0.59,70.9,91.6
19790,465,409,-0.18,0.8,71.0,97.5
19812,473,412,-0.27,0.88,71.8,97.2
19839,477,403,-0.35,0.98,70.5,97.3
19862,469,406,-0.25,0.92,70.9,95.1
19884,475,404,-0.26,0.77,70.0,96.2
19905,468,401,-0.22,0.7,70.8,99.0
19936,467,413,-0.15,0.36,70.0,98.1
19959,466,405,-0.12,0.19,69.3,96.1
19980,470,398,-0.06,0.09,70.9,98.0
20002,471,401,0.03,0.01,72.1,98.3
20027,472,417,0.15,-0.29,79.9,95.3
20049,464,411,0.19,-0.42,86.1,100
20072,467,399,0.16,-0.37,91.1,97.6
20093,472,410,0.09,-0.46,95.1,98.3
20114,477,411,-0.01,-0.53,98.3,97.9
20136,471,421,-0.03,-0.66,101.7,100
20158,466,401,-0.02,-0.44,103.6,97.4
20179,469,411,-0.13,-0.39,105.1,98.3
20200,477,411,-0.28,-0.27,106.3,96.4
20222,465,410,-0.21,-0.08,98.4,98.0
20243,469,412,-0.18,0.08,100.9,97.8
20264,473,419,-0.13,0.15,103.0,98.2
20285,471,413,-0.04,0.35,104.6,96.7
20306,470,402,0.02,0.77,103.9,100
20327,464,400,0.16,0.94,99.8,100
20353,465,401,0.22,0.98,96.3,100
20375,478,410,0.2,0.93,93.7,99.3
20397,475,404,0.17,0.95,97.2,97.6
20419,455,405,0.33,0.96,100.0,95.4
20440,468,409,0.21,0.84,102.6,95.4
20463,460,396,0.26,0.93,103.5,100
20485,468,406,0.15,0.73,99.5,98.1
20506,469,404,0.12,0.56,101.8,100.0
20527,465,417,0.08,0.27,98.6,100
20549,473,397,-0.06,0.16,101.5,96.4
20571,478,400,-0.19,-0.03,103.8,94.7
20592,481,401,-0.32,-0.29,105.7,90.6
20615,468,405,-0.25,-0.47,101.5,96.4
20637,463,403,-0.19,-0.49,98.1,99.8
20658,467,402,-0.19,-0.43,101.1,98.2
20679,467,395,-0.18,-0.29,97.6,99.3
20700,471,410,-0.26,-0.4,100.7,99.7
20721,466,402,-0.22,-0.34,97.4,96.8
20742,467,401,-0.0,-0.2,95.1,99.5
20768,479,407,0.1,-0.3,99.2,98.9
20790,485,405,0.14,-0.32,102.4,95.7
20811,480,406,0.26,-0.32,105.0,95.0
20834,485,406,0.3,-0.35,107.1,91.6
20855,501,418,0.09,-0.53,108.7,88.7
20879,498,424,-0.09,-0.61,110.1,92.9
20901,502,418,-0.34,-0.53,111.1,91.1
20922,493,415,-0.37,-0.42,112.4,94.1
20943,499,422,-0.32,-0.4,113.5,96.6
20966,462,391,0.61,0.23,112.2,86.6
20988,465,395,0.99,0.48,111.2,86.8
21011,460,389,1.49,0.75,110.1,87.4
21033,457,390,1.98,1.03,109.3,86.5
21055,450,389,2.56,1.27,108.6,84.0
21076,456,397,2.9,1.44,107.6,81.0
21097,461,395,2.99,1.59,107.1,83.4
21118,453,395,2.88,1.67,107.4,84.3
21139,463,393,2.39,1.49,107.6,85.0
21161,462,396,1.59,1.05,107.1,85.1
21195,467,390,0.43,0.42,106.8,84.6
21217,456,394,-0.81,-0.43,106.5,83.8
21239,464,397,-2.17,-1.32,106.2,85.5
21261,461,406,-3.27,-2.11,106.0,90.6
21284,462,396,-3.9,-2.36,105.9,87.7
21305,469,398,-4.11,-2.31,105.8,85.8
21327,463,402,-3.94,-2.08,105.7,86.1
21350,462,417,-3.59,-1.91,105.6,90.6
21373,462,403,-3.11,-1.48,105.5,88.4
21395,460,399,-2.53,-1.04,105.1,86.8
21416,458,401,-1.99,-0.76,105.1,86.2
21438,463,403,-1.56,-0.53,105.2,85.6
21460,472,402,-1.21,-0.2,105.2,84.5
21481,465,411,-0.82,0.02,104.8,85.8
21502,461,397,-0.44,0.45,104.6,86.2
21523,467,413,-0.29,0.56,104.7,86.2
21544,468,403,-0.01,0.93,104.8,85.5
21566,463,403,0.25,1.15,104.9,86.4
21596,470,403,0.36,1.29,105.0,86.4
21618,476,400,0.38,1.46,105.2,87.5
21639,465,415,0.5,1.33,104.8,88.0
21660,464,424,0.61,1.04,104.5,89.1
21683,471,411,0.68,0.97,104.3,87.6
21704,466,415,0.89,0.81,104.5,86.8
21725,465,410,1.09,0.78,103.6,86.8
21746,469,418,1.25,0.74,102.2,86.4
21767,472,415,1.26,0.72,101.8,86.9
21798,475,428,1.21,0.55,101.4,87.9
21820,470,417,1.25,0.59,101.1,86.5
21842,473,428,1.23,0.46,100.9,89.4
21864,472,419,1.23,0.64,97.6,86.6
21885,460,424,1.31,0.76,94.8,84.9
21906,472,418,1.15,0.99,92.5,86.8
21927,471,417,1.0,1.18,90.4,88.7
21948,466,426,0.91,1.23,88.8,86.5
21969,461,414,0.95,1.31,87.5,88.3
21991,470,424,0.9,1.18,86.2,87.7
22020,460,416,0.93,1.14,85.4,88.2
22042,461,421,0.91,1.14,84.5,87.7
22063,470,415,0.8,1.16,83.6,90.2
22086,476,421,0.57,1.01,83.1,89.3
22107,477,417,0.33,0.84,82.5,90.5
22128,486,433,-0.01,0.37,82.4,86.0
22149,488,454,-0.32,-0.22,82.6,90.0
22170,492,444,-0.61,-0.53,82.5,91.3
22197,494,438,-0.82,-0.71,82.2,89.5
22219,502,441,-0.99,-0.98,82.9,84.7
22240,555,505,-1.52,-1.73,82.9,91.2
22263,559,515,-1.82,-2.36,85.7,95.2
22284,500,433,-1.0,-1.47,86.0,88.6
22305,568,524,-0.98,-1.8,86.0,92.4
22326,795,772,-2.91,-4.35,86.0,95.6
22347,814,779,-3.46,-5.09,86.0,95.3
22368,830,790,-3.24,-4.92,86.0,95.0
22390,837,810,-2.5,-4.14,86.0,95.2
22417,1573,1657,-8.86,-11.58,86.0,96.0
22440,1589,1664,-10.78,-13.78,86.0,95.9
22462,1572,1689,-9.6,-13.11,86.0,96.3
22484,1584,1715,-6.06,-9.79,86.0,96.7
22505,1384,1799,1.35,-4.91,86.0,99.5
22526,1388,1813,9.4,2.47,84.6,99.5
22547,1401,1822,18.62,12.33,83.4,96.9
22568,1397,1832,29.67,24.79,83.0,94.1
22595,1646,2360,40.26,34.81,82.2,95.2
22617,1634,2378,54.09,50.2,81.5,94.5
22638,1667,2390,67.99,68.02,79.5,93.5
22659,1670,2402,80.62,86.04,76.9,93.0
22682,1681,2421,90.65,102.92,73.8,93.3
22703,1790,2836,95.41,112.66,71.3,92.8
22724,1783,2865,94.0,118.07,69.3,92.3
22745,1789,2884,83.88,116.72,67.2,92.7
22766,1799,2907,68.85,110.65,67.2,93.4
22798,2297,3728,48.6,95.72,66.2,93.7
22820,2299,3728,34.15,86.87,66.0,93.8
22843,2291,3722,25.18,82.45,65.6,93.5
22865,1282,3155,31.49,88.62,65.6,89.3
22886,1258,3166,33.47,91.7,65.6,88.0
22907,1244,3143,32.47,92.12,65.6,88.5
22928,1225,3126,29.08,89.45,65.6,89.5
22949,1194,3123,24.6,85.63,65.6,90.4
22970,889,2595,22.64,88.01,65.6,92.4
23000,915,2543,18.1,88.47,65.6,94.0
23022,943,2510,11.13,85.75,65.6,95.1
23044,960,2460,1.1,78.67,65.6,96.0
23066,2818,4215,-41.64,40.3,65.6,79.1
23087,2922,4295,-65.96,16.93,65.6,75.7
23108,2913,4228,-93.54,-11.25,65.6,75.4
23129,2805,4069,-123.55,-45.49,65.6,75.9
23150,2298,3577,-146.75,-77.87,65.6,79.6
23171,2251,3518,-161.28,-106.97,65.6,83.3
23201,2186,3438,-161.04,-127.21,65.6,85.7
23223,2083,3318,-144.84,-135.8,65.6,87.6
23245,1570,2653,-115.08,-131.69,65.6,88.9
23267,1569,2633,-77.87,-120.98,65.6,89.0
23288,1540,2602,-32.39,-100.53,65.6,88.7
23309,1517,2572,18.33,-71.12,65.6,88.2
23330,1182,1935,69.92,-33.4,65.6,88.5
23351,1180,1931,106.0,-8.31,65.6,88.0
23372,1182,1936,114.66,-7.05,65.6,87.1
23404,1186,1917,93.01,-32.62,65.6,86.5
23427,1673,2243,49.88,-76.26,65.6,87.0
23448,1691,2278,5.27,-121.43,65.6,87.7
23470,1709,2314,-35.92,-163.38,65.6,88.5
23491,1727,2347,-70.91,-199.44,65.6,89.5
23512,4751,5391,-131.02,-261.02,65.6,88.4
23533,4856,5500,-168.12,-299.54,65.6,88.4
23554,4959,5600,-187.56,-319.75,65.6,88.7
23575,5074,5710,-192.64,-324.29,65.6,89.3
23606,8598,9084,-220.39,-349.39,65.6,88.5
23628,8710,9166,-217.53,-342.7,65.6,88.6
23650,8817,9236,-191.26,-310.38,65.6,89.0
23672,8887,9286,-143.41,-253.59,65.6,89.6
23693,8940,9303,-76.0,-175.15,65.6,90.2
23714,11649,11455,-19.18,-100.59,65.6,89.5
23735,11936,11681,64.71,-0.68,65.6,89.5
23756,12233,11914,167.6,117.56,67.9,89.9
23784,23657,19948,171.03,169.53,67.9,84.5
24050,43233,33697,33.37,128.98,67.9,80.9
24072,323801,313048,-2782.46,-2669.0,67.9,90.4
24093,324200,313503,-4036.54,-3921.67,67.9,91.2
24115,324647,314056,-4423.47,-4321.11,67.9,91.5
24136,325201,314747,-4263.92,-4188.31,67.9,91.8
24157,600696,594800,-6545.95,-6560.04,67.9,92.1
24178,600890,595064,-6802.4,-6900.88,67.9,92.2
24199,601071,595328,-5574.43,-5767.78,67.9,92.3
24229,601396,595824,-2659.89,-2973.69,67.9,92.4
24251,604665,601394,1407.11,940.12,70.1,92.4
24272,604695,601463,6964.47,6346.97,71.9,92.2
24294,604726,601537,14064.08,13311.5,72.9,92.0
24315,604763,601584,22527.26,21680.18,73.3,91.9
24336,604793,601651,31783.54,30919.61,73.3,91.9
24357,605319,602793,40763.33,39990.48,73.3,91.9
24378,605335,602817,47946.42,47373.02,73.3,91.9
24408,605345,602844,52779.55,52461.81,73.3,92.0
24432,605458,603202,54950.83,54899.69,73.3,92.0
24454,605453,603213,55110.82,55316.39,73.3,92.0
24476,605450,603215,52429.24,52852.1,73.3,92.1
24497,605461,603225,46522.77,47106.4,73.3,92.1
24518,605463,603229,38616.18,39312.92,73.3,92.1
24539,605433,603280,30220.64,30992.7,73.3,92.1
24561,605425,603274,22042.95,22852.83,73.3,92.1
24582,605430,603278,14273.12,15086.23,73.3,92.1
24609,605364,603209,7151.4,7946.43,73.3,92.1
24865,605284,603164,1819.45,2596.23,73.3,92.1
24887,605255,603174,-4513.9,-3778.89,73.3,92.1
24908,605264,603185,-10221.38,-9536.55,73.3,92.1
24930,605252,603202,-15242.76,-14616.54,73.3,92.1
24951,605258,603203,-19512.25,-18949.01,73.3,92.1
24972,605264,603201,-23108.81,-22610.93,73.3,92.1
24993,605328,603409,-26294.92,-25866.29,73.3,92.1
25014,605326,603409,-29261.78,-28902.8,73.3,92.1
25044,605322,603395,-32034.09,-31743.72,73.3,92.1
25066,605288,603355,-34750.11,-34527.25,73.3,92.1
25087,605267,603347,-37330.64,-37174.5,73.3,92.1
25109,605272,603339,-39649.47,-39557.88,73.3,92.1
25130,605273,603342,-41442.94,-41409.97,73.3,92.1
25151,605272,603348,-42312.04,-42327.32,73.3,92.1
25172,605283,603386,-41813.38,-41863.06,73.3,92.1
25193,605272,603396,-40092.49,-40164.85,73.3,92.1
25218,605281,603397,-37938.79,-38026.51,73.3,92.1
25241,605272,603408,-35768.48,-35869.78,73.3,92.1
25264,605258,603402,-33546.4,-33659.31,73.3,92.1
25287,605238,603390,-31322.86,-31447.41,73.3,92.1
25309,605251,603389,-29075.17,-29209.65,73.3,92.1
25330,605239,603390,-26808.92,-26952.86,73.3,92.1
25351,605239,603432,-24525.97,-24678.43,73.3,92.1
25372,605245,603429,-22244.99,-22403.69,73.3,92.1
25393,605261,603421,-20005.4,-20169.52,73.3,92.1
25423,605253,603445,-17812.76,-17980.81,73.3,92.1
25446,605273,603491,-15716.57,-15886.21,73.3,92.1
25467,605262,603504,-13704.41,-13874.57,73.3,92.1
25490,605263,603507,-11782.85,-11953.9,73.3,92.1
25511,605258,603492,-9950.31,-10120.53,73.3,92.1
25532,605204,603440,-8204.14,-8372.53,73.3,92.1
25553,605215,603442,-6536.76,-6704.0,73.3,92.1
25574,605228,603446,-4949.56,-5114.02,73.3,92.1
25604,605217,603451,-3433.93,-3594.32,73.3,92.1
25626,605199,603439,-2017.29,-2172.82,73.3,92.1
25647,605191,603440,-696.96,-847.03,73.3,92.1
25671,605199,603436,530.38,387.44,73.3,92.1
25694,605196,603444,1665.55,1529.13,73.3,92.1
25715,605200,603437,2714.44,2585.07,73.3,92.1
25736,605181,603448,3683.48,3561.1,73.3,92.1
25757,605169,603453,4561.67,4446.97,73.3,92.1
25778,605178,603449,5367.28,5258.53,73.3,92.1
25809,605199,603546,6093.41,5989.9,73.3,92.1
25831,605189,603532,6734.81,6636.88,73.3,92.1
25852,605197,603538,7301.14,7208.92,73.3,92.1
25877,605192,603549,7799.21,7712.93,73.3,92.1
25900,605200,603552,8226.38,8146.58,73.3,92.1
25921,605199,603595,8590.72,8517.38,73.3,92.1
25942,605193,603567,8899.17,8833.6,73.3,92.1
25964,605189,603566,9149.11,9090.83,73.3,92.1
25985,605189,603566,9334.04,9282.66,73.3,92.1
26016,605098,603397,9468.3,9425.47,73.3,92.1
26038,605096,603402,9547.46,9513.23,73.3,92.1
26060,605109,603405,9577.19,9550.65,73.3,92.1
26084,605112,603446,9569.1,9547.96,73.3,92.1
26106,605110,603449,9517.1,9501.02,73.3,92.1
26127,605111,603444,9426.63,9415.74,73.3,92.1
26148,605101,603451,9323.97,9310.7,73.3,92.1
26169,605114,603433,9216.19,9190.76,73.3,92.1
26199,605065,603375,9542.19,9516.04,73.3,92.1
26221,605054,603364,9580.69,9554.61,73.3,92.1
26243,605046,603353,9472.12,9446.52,73.3,92.1
26265,605019,603332,9276.35,9251.2,73.3,92.1
26287,605023,603333,9524.55,9508.26,73.3,92.0
26310,605025,603330,9479.75,9469.44,73.3,92.0
26331,605023,603340,9289.64,9284.01,73.3,92.0
26352,605022,603342,8961.07,8961.17,73.3,92.0
26373,605020,603369,8628.73,8636.36,73.3,92.0
26404,605014,603361,8274.56,8287.45,73.3,92.0
26426,605020,603363,7892.47,7911.41,73.3,92.0
26447,605012,603364,7503.99,7526.69,73.3,92.0
26469,604993,603367,7109.11,7134.28,73.3,92.0
26491,605012,603369,6660.45,6704.0,73.3,92.1
26514,605001,603360,6144.02,6227.37,73.3,92.3
26535,605001,603361,4412.54,4502.7,73.3,92.4
26556,604960,603331,3420.21,3512.78,73.3,92.4
26587,604975,603316,2789.94,2882.41,73.3,92.5
26609,604967,603318,2353.23,2443.46,73.3,92.5
26630,604961,603308,779.88,846.94,73.3,92.3
26652,604858,603134,-71.35,-16.42,73.3,91.9
26674,604858,603108,-534.63,-486.59,73.3,91.9
26697,604863,603103,-644.08,-603.76,73.3,91.9
26719,604844,603104,-753.07,-725.88,73.3,92.0
26740,604771,602947,-849.06,-828.82,73.3,92.0
26762,604774,602953,-1139.47,-1125.93,73.3,92.1
26784,604768,602952,-1153.43,-1143.06,73.3,92.1
26805,604765,602950,-1156.46,-1149.15,73.3,92.1
26826,604668,602782,-1152.88,-1150.41,73.3,92.1
26847,604666,602768,-1142.34,-1143.68,73.3,92.1
26868,604671,602775,-971.74,-976.19,73.3,92.2
26898,604671,602768,-960.72,-969.24,73.3,92.2
26920,604572,602607,-944.52,-956.1,73.3,92.2
26942,604568,602597,-933.42,-948.07,73.3,92.2
26964,604561,602586,-910.41,-927.77,73.3,92.2
26985,604556,602576,-883.82,-902.99,73.3,92.2
27006,604560,602600,-853.86,-874.78,73.3,92.2
27027,604554,602609,-820.98,-843.14,73.3,92.2
27048,604549,602615,-785.26,-808.13,73.3,92.2
27069,604555,602610,-663.54,-685.57,73.3,92.2
27099,604544,602602,8.24,-7.62,73.3,92.2
27121,604520,602578,3.37,-12.62,73.3,92.2
27143,604532,602586,-1.2,-16.96,73.3,92.2
27165,604525,602593,-8.61,-23.67,73.3,92.2
27186,604476,602512,-10.47,-23.65,73.3,92.2
27207,604469,602512,-11.77,-22.69,73.3,92.2
27228,604472,602502,-12.52,-21.0,73.3,92.2
27249,604454,602494,-11.74,-16.83,73.3,92.3
27279,604468,602491,10.46,9.68,73.3,92.3
27301,604418,602426,11.5,14.94,73.3,92.3
27324,604417,602437,9.55,16.51,73.3,92.3
27346,604419,602435,9.75,19.7,73.3,92.2
27367,604253,602103,11.31,25.27,73.3,92.2
27388,604248,602100,11.68,28.03,73.3,92.2
27409,604250,602076,11.15,29.04,73.3,92.2
27430,604248,602074,10.13,28.64,73.3,92.2
27451,604240,602061,8.82,27.34,73.3,92.2
27481,604160,601926,8.04,26.38,73.3,92.2
27503,604157,601918,15.6,32.99,73.3,92.2
27526,604152,601913,13.28,29.04,73.3,92.2
27548,604081,601826,11.23,25.0,73.3,92.1
27569,604086,601800,8.28,19.48,73.3,92.1
27590,604080,601808,4.65,12.09,73.3,92.2
27611,604088,601815,0.45,3.71,73.3,92.2
27632,604083,601808,-3.82,-4.76,73.3,92.1
27662,603984,601641,-0.33,-4.67,73.3,92.1
27684,603974,601620,-3.15,-10.26,73.3,92.2
27705,603978,601618,-5.56,-14.05,73.3,92.3
27728,603978,601622,-6.46,-15.21,73.3,92.3
27749,603957,601564,-6.94,-14.91,73.3,92.3
27770,603942,601572,-7.08,-14.36,73.3,92.2
27791,603942,601573,-7.19,-13.46,73.3,92.2
27812,603942,601564,-7.0,-11.79,73.3,92.1
27833,603879,601463,-2.79,-5.83,73.3,92.0
27865,603871,601462,-2.01,-4.0,73.3,92.0
27887,603868,601464,-0.79,-1.88,73.3,92.0
27909,603869,601457,-0.88,-1.27,73.3,91.9
27932,603805,601370,0.1,0.56,73.3,92.0
27953,603807,601357,0.65,1.95,73.3,91.9
27974,603808,601361,1.13,3.3,73.3,92.1
27995,603818,601355,2.29,5.88,73.3,92.2
28016,603731,601282,4.37,9.47,73.3,92.2
28042,603740,601280,7.33,13.73,73.3,92.7
28065,603757,601278,7.33,15.03,73.3,92.9
28088,603750,601271,7.35,16.13,73.3,93.0
28110,603585,600942,8.9,20.11,76.8,93.4
28142,603577,600917,9.4,22.19,79.1,93.6
28164,603576,600916,9.06,22.22,80.9,94.0
28185,603566,600895,10.09,23.64,82.4,94.2
28207,603495,600772,10.31,24.24,83.6,94.3
28228,603491,600759,8.76,22.31,84.5,94.1
28249,603487,600756,9.65,22.93,86.6,93.4
28270,603485,600752,8.66,20.77,88.1,93.2
28291,603437,600680,7.54,18.16,89.2,93.0
28321,603441,600650,6.44,14.86,90.1,94.1
28344,603423,600662,3.9,8.5,91.1,94.3
28365,603430,600653,1.16,1.89,91.7,94.6
28387,603368,600542,-1.16,-4.26,92.1,95.1
28408,603376,600530,-4.11,-10.57,92.4,95.2
28429,603367,600535,-5.96,-14.98,92.4,95.7
28450,603362,600534,-6.5,-16.51,92.4,96.3
28471,603347,600495,-5.62,-15.24,92.6,97.6
28492,603364,600506,-5.21,-14.08,92.9,98.1
28524,603354,600508,-4.75,-13.04,93.0,98.5
28546,603357,600500,-3.89,-10.8,93.2,98.6
28567,603324,600466,-2.37,-7.82,93.3,98.7
28589,603317,600467,-0.88,-5.04,93.4,98.8
28610,603324,600454,0.42,-2.33,93.5,99.0
28631,603323,600468,1.89,0.21,93.5,99.5
28652,603329,600459,2.98,2.53,93.6,99.5
28673,603281,600392,4.53,5.27,93.6,99.6
28704,603280,600387,5.93,7.79,93.6,99.9
28728,603279,600385,7.32,10.79,93.7,99.9
28750,603286,600398,8.86,14.13,93.7,100.0
28772,603271,600384,10.51,17.55,93.7,100
28793,603269,600375,12.08,20.77,93.7,100
28814,603261,600384,13.11,23.15,93.7,100
28835,603268,600374,13.38,24.54,93.7,100
28856,603120,600063,14.81,28.36,93.4,100
28877,603123,600064,15.71,30.77,92.7,100
28908,603115,600047,16.0,31.91,92.0,100
28932,603083,599979,16.01,32.43,91.3,100
28954,603087,599963,15.48,31.94,90.7,100
28977,603078,599970,14.92,31.1,90.4,100
28998,603076,599964,13.83,29.29,90.3,100
29019,603077,599951,12.37,26.71,90.1,100
29040,603028,599876,10.92,23.61,90.0,100
29061,603031,599867,8.88,19.34,89.7,100
29091,603015,599860,5.74,12.44,89.4,100
29113,603000,599789,2.24,5.04,89.1,100
29137,602998,599857,-1.54,-4.09,89.0,100
29160,602994,599776,-4.61,-10.93,88.8,100
29182,602989,599783,-6.83,-16.23,88.4,100
29203,602991,599777,-7.89,-18.73,88.4,100
29224,603003,599798,-8.48,-19.77,88.4,100
29245,603005,599798,-8.24,-19.15,88.3,100
29266,602983,599769,-7.86,-18.23,88.6,100
29293,602995,599798,-7.58,-17.3,89.0,100
29315,602998,599810,-7.31,-16.33,89.4,100
29336,603008,599807,-6.98,-15.02,89.7,100
29357,603004,599820,-6.18,-13.27,90.0,100
29380,603004,599811,-5.3,-11.17,90.1,100
29401,603006,599820,-3.97,-8.57,90.3,100
29422,603008,599823,-2.23,-5.27,90.7,100
29443,603009,599820,-0.5,-1.96,90.7,100
29473,603013,599829,1.19,1.2,90.8,100
29495,603007,599809,3.05,5.16,90.8,100
29516,603003,599810,4.63,8.93,91.4,100
29538,603012,599800,5.91,12.45,91.3,100
29562,603011,599792,6.52,14.73,91.8,100
29584,602814,599395,10.01,22.55,91.9,100
29605,602819,599390,11.74,26.64,91.7,100
29626,602815,599387,12.68,28.75,91.5,100
29647,602812,599371,12.9,29.48,91.4,100
29677,602823,599383,12.42,28.75,91.6,100
29699,602816,599378,11.6,26.92,91.7,100
29720,602825,599380,10.45,24.25,91.6,100
29742,602825,599383,8.3,19.34,91.4,100
29763,602821,599353,5.13,12.41,91.3,100
29786,602823,599349,1.62,4.36,91.2,100
29807,602813,599345,-2.73,-5.49,91.2,100
29828,602819,599353,-7.77,-16.62,91.1,100
29849,602810,599301,-12.58,-26.76,91.4,100
29879,602808,599298,-16.38,-34.83,91.8,100
29901,602825,599296,-17.74,-37.68,91.9,100
29923,602810,599301,-16.9,-36.36,92.0,100
29945,602827,599314,-15.0,-32.52,92.1,100
29966,602826,599325,-12.67,-28.12,92.1,100
29989,602835,599319,-10.37,-23.32,92.2,100
30010,602834,599326,-8.41,-19.63,92.5,100
30031,602850,599370,-6.77,-16.68,92.7,100
30061,602834,599332,-4.99,-13.24,92.9,100
30083,602857,599372,-3.66,-10.69,93.1,100
30104,602864,599364,-2.51,-8.31,93.2,100
30126,602851,599369,-1.21,-6.0,93.3,100
30147,602853,599362,0.09,-3.35,94.7,100
30169,602852,599364,1.75,-0.03,95.7,100
30191,602853,599375,3.16,3.32,96.6,100
30212,602853,599373,4.47,6.77,97.3,100
30233,602896,599444,5.1,9.42,97.8,100
30255,602894,599454,6.21,12.09,98.3,100
30276,602898,599451,6.83,14.25,98.6,100
30297,602898,599443,7.09,16.05,98.9,100
30318,602760,599125,8.82,21.0,97.9,100
30339,602745,599118,10.48,25.22,96.5,100
30370,602737,599082,11.34,27.94,95.1,100
30392,602734,599074,11.03,28.12,94.0,100
30413,602681,598973,10.93,28.65,93.1,100
30435,602689,598964,10.5,28.5,92.4,100
30456,602688,598971,9.65,27.05,91.8,100
30477,602686,598964,8.45,24.52,91.4,100
30498,602665,598924,6.91,20.88,91.0,100
30519,602673,598913,4.58,15.52,90.7,100
30540,602668,598931,1.12,7.43,90.8,100
30571,602665,598921,-3.72,-3.7,90.8,100
30594,602593,598796,-8.23,-14.12,90.8,100
30615,602592,598791,-12.71,-24.29,90.8,100
30637,602590,598794,-16.48,-32.54,90.8,100
30658,602591,598786,-18.75,-37.41,90.9,100
30679,602583,598789,-19.63,-39.51,90.9,100
30700,602581,598763,-19.72,-39.43,90.9,100
30721,602577,598761,-19.38,-38.42,90.9,100
30751,602574,598759,-19.12,-37.73,90.9,100
30775,602612,598835,-18.83,-36.46,91.2,100
30797,602606,598835,-18.17,-34.54,91.4,100
30819,602617,598836,-17.7,-32.6,91.6,100
30840,602611,598839,-17.2,-30.54,91.7,100
30861,602612,598834,-16.76,-28.52,91.8,100
30883,602633,598872,-16.6,-27.21,91.9,100
30904,602631,598879,-15.28,-24.25,92.0,100
30925,602638,598881,-13.48,-20.35,92.1,100
30955,602710,599015,-11.73,-16.76,91.3,100
30977,602698,599000,-9.14,-11.72,90.7,100
31002,602712,599016,-6.28,-6.27,90.2,100
31024,602719,599026,-3.25,-0.28,89.8,100
31045,602732,599062,-0.04,5.51,89.5,100
31066,602744,599049,2.98,11.5,89.2,100
31087,602735,599043,6.59,18.27,89.0,100
31108,602728,599032,9.67,23.78,88.4,100
31129,602529,598576,14.4,33.13,87.8,100
31159,602534,598585,17.83,39.6,87.2,100
31181,602533,598572,20.55,44.59,86.6,100
31205,602535,598572,22.67,47.96,86.2,100
31228,602569,598640,23.69,48.93,85.9,100
31249,602565,598638,24.17,48.75,85.6,100
31270,602570,598622,23.78,46.93,85.4,100
31291,602568,598634,21.93,41.98,85.2,100
31312,602573,598640,18.65,34.0,85.1,100
31342,602594,598664,14.06,23.74,85.2,100
31364,602591,598672,8.43,10.67,85.3,100
31385,602586,598667,2.34,-2.89,85.4,100
31410,602603,598686,-3.95,-16.63,85.4,100
31432,602610,598682,-9.26,-28.04,85.5,100
31453,602609,598674,-12.52,-34.93,85.5,100
31474,602603,598681,-13.37,-36.7,85.8,100
31495,602606,598691,-11.91,-33.44,86.1,100
31516,602670,598800,-10.43,-29.57,86.2,100
31547,602683,598801,-8.74,-25.06,86.4,100
31569,602680,598803,-6.73,-20.04,86.5,100
31590,602753,598946,-5.54,-16.78,86.6,100
31615,602761,598937,-4.05,-12.64,86.7,100
31637,602745,598942,-2.21,-8.44,86.7,100
31658,602755,598949,-0.54,-4.43,86.5,100
31679,602755,598955,1.05,-0.78,86.4,100
31700,602791,599014,2.26,2.06,86.2,100
31721,602790,599024,3.96,5.66,86.1,100
31752,602788,599021,6.04,10.02,86.0,100
31774,602792,599023,8.27,14.92,87.9,100
31795,602843,599118,10.26,19.27,87.4,100
31820,602840,599120,13.84,26.62,87.1,100
31842,602840,599125,16.05,31.17,86.8,100
31863,602847,599127,17.44,34.43,87.6,100
31884,602841,599110,18.02,36.37,88.0,100
31905,602842,599098,17.78,36.95,88.1,100
31934,602829,599089,17.05,36.32,87.8,100
31956,602822,599085,15.89,34.74,87.4,100
31977,602663,598709,16.4,36.94,86.6,100
31999,602661,598707,15.9,36.7,85.7,100
32022,602670,598703,14.72,35.19,85.0,100
32044,602666,598710,13.2,32.35,84.4,100
32065,602672,598723,11.06,28.05,84.2,100
32086,602696,598759,8.55,23.18,84.0,100
32107,602695,598751,5.49,16.94,83.9,100
32137,602695,598767,1.61,8.71,83.8,100
32159,602698,598774,-3.0,-1.47,83.9,100
32180,602702,598772,-8.2,-12.74,84.0,100
32204,602704,598773,-13.66,-24.76,84.4,100
32226,602698,598761,-19.35,-37.34,84.6,100
32249,602716,598790,-24.69,-49.08,84.9,100
32270,602723,598793,-28.9,-58.57,85.0,100
32291,602720,598799,-30.82,-63.32,85.2,100
32312,602728,598798,-30.79,-63.34,85.3,100
32342,602775,598900,-29.44,-60.38,85.4,100
32364,602781,598899,-27.23,-55.49,85.4,100
32385,602782,598906,-24.44,-49.47,85.7,100
32408,602785,598920,-21.77,-43.81,86.0,100
32430,602831,598999,-19.66,-39.19,85.9,100
32453,602831,599015,-17.31,-34.3,85.9,100
32474,602835,599023,-14.99,-29.52,85.9,100
32495,602831,599025,-12.48,-24.66,85.8,100
32527,602867,599095,-10.28,-20.32,85.8,100
32549,602871,599116,-7.43,-14.79,85.8,100
32570,602883,599106,-3.92,-7.33,85.8,100
32592,602878,599121,-0.57,-0.64,85.8,100
32613,602921,599196,2.14,5.14,85.8,100
32636,602920,599210,4.68,10.47,85.7,100
32658,602926,599210,7.09,15.83,85.7,100
32679,602923,599232,8.92,19.94,85.7,100
32701,602940,599228,10.12,23.31,85.7,100
32723,602797,598889,12.73,29.83,85.7,100
32744,602773,598868,15.02,35.23,85.5,100
32765,602778,598859,15.63,37.07,85.3,100
32786,602759,598784,16.08,38.49,84.9,100
32807,602752,598785,16.02,38.29,84.8,100
32837,602759,598806,15.72,37.14,84.8,100
32860,602770,598794,14.64,34.63,84.7,100
32882,602758,598797,12.95,30.28,84.7,100
32904,602768,598831,10.21,23.52,84.6,100
32926,602779,598835,6.65,15.09,84.6,100
32947,602781,598840,2.06,4.36,84.6,100
32968,602772,598806,-3.14,-7.9,84.8,100
32989,602748,598791,-8.43,-20.98,85.0,100
33010,602764,598804,-13.71,-33.43,85.1,100
33040,602762,598796,-17.75,-42.91,85.3,100
33062,602758,598808,-19.43,-46.93,85.3,100
33083,602761,598803,-19.3,-46.65,85.4,100
33105,602766,598807,-18.22,-43.94,85.5,100
33126,602773,598804,-16.8,-40.0,85.5,100
33147,602807,598887,-15.3,-36.05,85.6,100
33168,602806,598899,-13.63,-31.78,85.8,100
33189,602818,598894,-12.45,-28.05,86.1,100
33219,602812,598895,-11.06,-24.46,86.0,100
33241,602807,598901,-9.79,-21.46,85.9,100
33264,602882,599065,-9.79,-21.02,85.9,100
33286,602896,599065,-8.84,-18.34,85.9,100
33307,602898,599070,-7.42,-14.73,85.8,100
33328,602903,599074,-5.52,-10.48,85.8,100
33349,602916,599107,-3.44,-6.09,85.8,100
33370,602900,599112,-0.03,0.84,85.8,100
33391,602917,599108,2.84,7.09,85.8,100
33421,602912,599106,5.78,13.3,85.3,100
33444,602905,599103,8.73,19.37,85.9,100
33467,602918,599102,10.87,24.38,86.1,100
33488,602916,599095,13.02,29.22,86.3,100
33509,602893,599087,15.18,33.57,86.4,100
33531,602607,598441,19.94,44.0,86.0,100
33552,602602,598438,22.65,49.73,85.5,100
33573,602593,598429,23.56,51.47,84.8,100
33594,602585,598411,22.94,49.9,84.3,100
33624,602597,598440,20.85,45.49,84.1,100
33646,602600,598433,18.01,39.78,84.0,100
33668,602598,598431,14.41,32.37,83.8,100
33690,602596,598430,10.05,23.0,83.7,100
33711,602578,598379,4.83,11.68,83.9,100
33732,602572,598387,-1.55,-2.4,84.0,100
33753,602574,598372,-9.31,-18.97,84.3,100
33774,602579,598365,-17.73,-36.71,84.6,100
33804,602593,598411,-26.16,-54.84,84.8,100
33827,602593,598420,-33.4,-70.28,85.0,100
33848,602590,598425,-37.41,-78.9,85.4,100
33871,602592,598415,-37.77,-79.84,85.7,100
33893,602651,598555,-35.96,-76.23,86.2,100
33914,602659,598566,-32.59,-69.32,86.6,100
33935,602663,598565,-28.81,-61.36,86.9,100
33956,602657,598575,-24.76,-53.15,87.2,100
33977,602670,598578,-20.79,-44.71,87.4,100
34008,602759,598771,-18.11,-39.07,87.8,100
34030,602767,598775,-14.25,-30.66,87.9,100
34053,602759,598787,-9.7,-21.17,88.0,100
34075,602853,598960,-5.85,-12.68,88.0,100
34096,602857,598966,-1.43,-2.85,88.1,100
34117,602850,598968,3.22,7.36,88.1,100
34138,602848,598981,7.89,17.33,88.1,100
34159,602864,598969,12.46,27.31,88.2,100
34180,602929,599115,16.39,35.51,88.2,100
34207,602929,599135,21.18,45.22,88.2,100
34235,602932,599133,25.47,54.13,88.2,100
34257,602947,599148,29.12,61.84,88.2,100
34280,602937,599144,32.67,68.92,88.2,100
34302,602924,599104,35.78,75.27,88.0,100
34324,602911,599070,38.23,80.43,87.5,100
34346,602723,598643,41.11,86.83,86.9,100
34367,602727,598651,42.07,88.89,86.2,100
34388,602721,598654,41.78,88.03,85.6,100
34409,602726,598650,40.26,84.8,85.2,100
34430,602721,598650,37.86,79.52,84.8,100
34451,602798,598818,34.1,70.99,84.7,100
34484,602807,598828,29.44,60.87,84.7,100
34506,602803,598825,24.4,49.76,84.7,100
34527,602843,598882,17.59,35.06,84.6,100
34549,602839,598891,9.95,18.11,84.6,100
34570,602853,598890,1.41,-0.38,84.6,100
34591,602844,598883,-6.96,-18.72,84.6,100
34612,602845,598882,-14.73,-35.76,84.6,100
34633,602845,598893,-20.74,-48.96,84.5,100
34654,602851,598895,-24.04,-55.75,84.5,100
34687,602862,598907,-24.19,-55.7,84.8,100
34709,602927,599049,-22.69,-52.07,85.2,100
34730,602909,599036,-19.39,-45.03,85.6,100
34752,602930,599050,-16.06,-37.61,85.8,100
34773,602941,599068,-12.92,-30.75,86.1,100
34794,602942,599068,-10.5,-25.34,85.5,100
34815,602992,599179,-9.21,-22.69,85.1,100
34836,603000,599190,-8.27,-20.51,85.2,100
34857,602997,599210,-7.24,-18.43,85.3,100
34888,603015,599222,-6.32,-15.85,85.4,100
34910,603024,599264,-5.13,-13.15,85.5,100
34931,603028,599263,-3.65,-9.4,85.5,100
34953,603032,599267,-1.14,-3.39,85.1,100
34974,603027,599267,1.63,2.75,84.3,100
34995,603044,599292,3.65,7.42,83.6,100
35016,603046,599273,5.4,11.84,83.1,100
35037,603040,599277,6.81,14.99,84.1,100
35067,603032,599268,8.02,17.55,85.0,100
35089,602823,598818,10.85,24.07,85.1,100
35111,602815,598795,12.26,27.65,85.0,100
35133,602814,598773,12.35,28.61,84.7,100
35154,602786,598764,11.97,28.0,84.4,100
35175,602716,598580,11.31,27.09,84.2,100
35196,602712,598581,9.67,23.82,84.0,100
35217,602719,598598,7.13,18.26,83.9,100
35238,602718,598589,3.6,10.72,84.0,100
35269,602719,598575,-1.13,0.78,84.1,100
35291,602706,598585,-6.47,-11.24,84.2,100
35313,602710,598575,-13.01,-25.28,84.2,100
35335,602720,598581,-20.54,-41.07,84.3,100
35356,602710,598566,-28.14,-57.08,84.6,100
35377,602634,598406,-34.37,-70.38,84.8,100
35398,602630,598401,-38.97,-80.3,85.0,100
35419,602629,598389,-41.69,-86.0,85.1,100
35440,602627,598377,-42.13,-86.82,85.5,100
35470,602593,598330,-40.7,-84.23,85.8,100
35492,602604,598320,-38.87,-80.29,86.0,100
35514,602596,598331,-35.44,-73.29,86.2,100
35536,602604,598324,-31.66,-65.25,86.4,100
35557,602500,598125,-26.94,-55.5,87.3,100
35578,602497,598119,-23.3,-47.95,88.0,100
35599,602491,598118,-20.42,-42.37,88.6,100
35620,602491,598110,-18.36,-38.12,89.0,100
35652,602430,597987,-15.99,-33.45,89.4,100
35674,602421,597981,-14.4,-30.45,89.7,100
35695,602417,597979,-12.83,-27.12,90.0,100
35718,602422,597992,-11.05,-23.34,90.1,100
35739,602369,597872,-8.59,-18.13,90.3,100
35760,602365,597880,-5.46,-11.36,89.9,100
35781,602364,597864,-3.52,-6.86,89.6,100
35802,602363,597875,-2.54,-4.59,89.3,100
35823,602364,597861,-2.36,-3.63,89.1,100
35854,602209,597562,-0.76,0.24,88.4,100
35876,602202,597534,-0.45,1.58,87.6,100
35898,602181,597501,0.61,4.34,87.0,100
35920,601711,596590,6.53,16.37,86.3,100
35941,601702,596571,9.89,23.5,85.5,100
35963,601691,596576,11.95,27.53,84.8,100
35984,601691,596570,12.57,28.93,84.3,100
36005,601735,596717,11.69,26.66,84.1,100
36032,601735,596718,9.66,22.1,84.2,100
36054,601739,596727,6.45,15.31,84.2,100
36075,601747,596730,1.88,6.17,84.3,100
36100,601701,596625,-3.96,-5.08,84.3,100
36123,601685,596590,-12.43,-21.31,84.4,100
36145,601671,596571,-21.51,-38.87,84.4,100
36166,601665,596557,-30.42,-55.52,84.4,100
36187,601718,596649,-38.26,-69.68,84.7,100
36208,601724,596665,-43.22,-77.93,84.9,100
36235,601727,596661,-44.21,-78.51,85.3,100
36257,601725,596684,-38.74,-66.77,85.6,100
36278,601725,596687,-29.44,-47.94,85.9,100
36300,601917,597026,-21.53,-31.95,86.1,100
36325,601924,597023,-13.67,-16.64,86.5,100
36347,601921,597043,-4.9,-1.11,86.9,100
36368,601949,597081,2.87,12.16,87.1,100
36389,601950,597086,10.09,24.52,86.9,100
36419,601946,597088,17.09,36.42,86.6,100
36441,601953,597093,24.28,49.12,86.4,100
36463,602020,597230,31.05,61.33,86.3,100
36485,602040,597241,38.17,74.56,86.2,100
36506,602041,597251,45.63,88.13,86.1,100
36538,602036,597267,53.02,101.4,87.6,100
36559,602094,597361,59.56,113.39,87.2,100
36580,602106,597361,66.44,126.37,88.5,100
36602,602102,597348,72.05,136.62,89.0,100
36624,602082,597341,75.66,142.52,89.1,100
36645,601878,596857,78.2,148.01,88.7,100
36666,601877,596859,77.61,147.15,88.1,100
36687,601869,596850,75.4,142.76,87.4,100
36718,601854,596856,72.8,137.23,86.8,100
36741,601863,596846,69.86,131.35,86.3,100
36763,601887,596887,65.72,123.11,86.2,100
36784,601891,596892,61.0,113.54,86.1,100
36806,601883,596886,55.0,101.52,86.0,100
36827,601797,596707,48.58,88.6,86.0,100
36848,601799,596701,40.41,72.08,85.9,100
36869,601789,596689,30.83,52.39,85.9,100
36890,601789,596681,20.0,30.47,85.8,100
36920,601772,596679,8.97,8.02,85.8,100
36942,601706,596528,-0.51,-10.88,86.0,100
36964,601694,596524,-8.21,-26.09,86.2,100
36986,601695,596523,-13.69,-36.06,86.4,100
37007,601749,596637,-17.68,-42.84,86.5,100
37028,601747,596624,-20.38,-47.05,86.6,100
37049,601750,596633,-23.01,-51.3,86.7,100
37070,601748,596641,-25.84,-56.12,87.0,100
37100,601755,596643,-28.94,-61.22,87.2,100
37124,601747,596634,-31.96,-65.89,87.4,100
37147,601746,596638,-34.09,-69.05,87.6,100
37169,601740,596622,-35.08,-69.68,87.7,100
37190,601763,596609,-35.53,-68.4,87.8,100
37211,601623,596287,-33.57,-62.42,90.3,100
37232,601592,596266,-31.17,-56.61,92.2,100
37253,601576,596218,-28.01,-49.37,93.4,100
37274,601564,596186,-24.22,-41.35,94.4,100
37304,601154,595306,-14.15,-20.3,94.9,100
37328,601118,595284,-8.96,-10.42,95.0,100
37350,601128,595258,-6.25,-5.18,95.0,100
37373,601110,595225,-5.26,-3.78,97.4,100
37394,600376,593784,1.89,8.8,98.0,100
37415,600350,593741,3.66,10.56,97.7,100
37436,600340,593719,1.01,3.11,98.2,100
37457,600326,593698,-5.39,-12.13,98.5,100
37489,600113,593289,-12.61,-29.38,98.8,100
37511,600118,593308,-24.76,-55.53,99.1,100
37534,600114,593303,-39.04,-85.38,99.9,100
37557,600109,593298,-54.94,-117.66,100.6,100
37578,599944,593010,-70.09,-148.33,101.2,100
37599,599931,592988,-86.06,-179.97,101.7,100
37620,599938,592980,-100.37,-207.04,102.0,100
37642,599925,592984,-112.13,-228.73,103.0,100
37663,599922,592968,-122.39,-246.72,104.7,100
37694,599631,592486,-127.18,-254.95,105.9,100
37716,599627,592469,-128.66,-255.43,107.0,100
37739,599623,592455,-123.03,-241.47,107.8,100
37762,599493,592254,-111.25,-216.2,108.5,100
37784,599490,592248,-98.55,-188.98,109.0,100
37805,599479,592274,-84.0,-158.34,109.4,100
37826,599486,592258,-70.38,-129.16,109.8,100
37847,599449,592237,-57.08,-101.32,110.0,100
37874,599446,592228,-45.34,-76.12,110.2,100
37896,599437,592227,-34.12,-52.14,110.4,100
37917,599431,592233,-23.7,-29.82,110.6,100
37939,599236,591858,-12.36,-5.59,110.7,100
37962,599217,591838,-3.18,14.38,110.8,100
37984,599189,591783,4.8,32.07,110.8,100
38005,599174,591759,13.4,50.08,110.9,100
38026,598915,591395,25.79,73.39,110.9,100
38047,598920,591394,36.66,94.28,111.0,100
38075,598926,591396,46.05,112.54,111.0,100
38097,598930,591395,54.98,129.63,111.0,100
38118,598928,591390,61.24,141.14,111.0,100
38143,598666,590958,67.86,152.39,111.1,100
38166,598650,590921,72.65,160.78,110.3,100
38188,598624,590898,73.54,161.45,109.6,100
38209,598546,590735,72.75,159.02,109.1,100
38232,598532,590737,69.59,152.01,108.0,100
38254,598542,590751,64.99,142.48,107.8,100
38275,598544,590751,60.56,133.77,107.7,100
38296,598540,590746,56.08,125.12,105.2,100
38317,598974,591483,46.81,108.26,103.5,100
38338,598983,591500,40.85,96.51,102.2,100
38369,599018,591541,35.89,86.06,101.4,100
38391,599260,591960,31.54,75.84,100.8,100
38412,599269,591961,28.6,68.28,100.3,100
38434,599264,591957,27.01,63.08,99.9,100
38455,599258,591950,28.47,63.08,99.6,100
38476,599256,591953,33.79,69.66,99.4,100
38497,599569,592497,39.38,76.55,99.2,100
38518,599580,592509,49.74,91.85,99.0,100
38539,599582,592523,62.99,111.69,100.6,100
38570,599729,592770,78.04,134.97,101.9,100
38592,599752,592810,95.77,162.68,101.9,100
38613,599773,592827,112.98,190.04,102.9,100
38635,599782,592845,127.11,212.16,103.5,100
38656,599789,592868,136.19,225.79,103.8,100
38677,599776,592811,140.57,232.26,103.7,100
38698,599753,592799,141.09,232.06,103.6,100
38719,599741,592768,139.03,228.03,102.3,100
38750,599704,592726,136.99,224.1,100.9,100
38772,599308,592092,138.2,225.17,99.4,100
38794,599279,592065,136.47,221.35,98.3,99.9
38816,599263,592042,131.3,211.96,97.4,99.9
38837,599254,592028,121.9,195.31,97.0,99.9
38858,598881,591455,113.2,179.14,96.3,99.7
38879,598877,591443,100.43,157.3,95.5,99.7
38900,598865,591449,83.45,128.14,94.9,99.8
38921,598860,591424,63.08,93.82,94.4,99.9
38952,598633,591053,42.08,58.74,94.0,99.9
38974,598622,591042,18.03,19.1,93.6,99.9
38996,598622,591035,-8.55,-24.17,93.4,100.0
39018,598608,591022,-36.12,-68.61,93.1,100
39039,598310,590475,-60.64,-107.01,93.0,100
39060,598316,590467,-84.85,-144.69,92.8,100
39081,598299,590449,-106.09,-178.08,92.7,100
39102,598296,590440,-123.37,-205.6,92.9,100
39124,598465,590658,-139.62,-231.15,93.1,99.9
39154,598467,590665,-151.4,-250.39,93.2,99.9
39176,598475,590645,-158.62,-262.31,93.3,99.8
39198,598465,590669,-162.65,-270.98,93.4,99.7
39221,598471,590665,-163.03,-273.5,93.5,99.7
39242,598358,590504,-160.62,-272.33,93.5,99.7
39263,598362,590496,-156.82,-268.73,93.9,99.8
39284,598355,590496,-152.46,-265.02,94.1,99.8
39305,598036,589943,-141.76,-250.39,94.4,99.8
39335,598013,589923,-129.93,-234.01,94.5,99.9
39357,598020,589904,-115.82,-213.08,95.6,100.0
39378,598019,589899,-99.07,-187.27,96.5,100
39401,598009,589885,-80.62,-157.95,97.2,100
39422,597997,589868,-63.39,-129.82,97.8,100
39443,597993,589858,-48.9,-105.03,98.2,100
39464,597985,589842,-40.03,-89.04,98.6,100
39485,597985,589842,-34.04,-77.08,98.9,100
39506,597938,589732,-31.32,-70.08,99.1,100
39536,597934,589744,-28.22,-61.81,99.3,99.7
39558,597948,589751,-28.57,-60.77,99.4,99.7
39583,597952,589758,-29.86,-61.54,99.5,99.6
39605,598001,589822,-31.1,-62.57,99.6,99.6
39626,597995,589822,-25.65,-51.84,100.0,99.3
39647,597991,589827,-18.86,-39.54,100.0,99.2
39668,598007,589830,-10.85,-25.04,101.5,99.1
39689,598198,590150,-4.7,-13.81,102.6,99.1
39715,598204,590158,3.14,0.2,103.5,99.1
39738,598210,590168,10.17,12.63,104.2,99.1
39759,598218,590180,17.06,24.61,104.8,99.1
39781,598149,590059,24.53,37.53,104.8,99.1
39804,598138,590054,32.66,51.41,104.8,99.1
39826,598139,590042,40.09,64.39,104.8,99.1
39847,598132,590028,47.75,77.97,104.8,99.1
39868,597834,589550,58.5,96.32,95.6,99.1
39889,597824,589533,67.08,111.24,88.0,99.1
39919,597816,589522,74.71,124.61,84.7,99.1
39941,597799,589508,79.79,133.64,82.1,99.1
39963,597769,589459,83.34,140.01,77.2,99.1
39986,597787,589478,84.84,143.2,76.0,99.2
40008,597784,589489,82.53,139.75,72.4,99.2
40030,597786,589500,75.96,129.32,69.4,99.2
40051,597930,589705,64.85,112.02,67.3,99.2
40072,597940,589707,52.62,92.74,65.6,99.3
40102,597921,589695,39.83,72.21,64.3,99.3
40125,597922,589699,26.89,51.37,63.2,99.3
40146,597887,589663,15.24,32.54,62.3,99.3
40168,597880,589662,5.89,17.84,61.6,99.3
40190,597902,589662,-1.0,7.48,61.0,99.3
40213,597891,589663,-3.09,4.52,60.6,99.2
40235,598124,590044,-4.59,2.28,60.2,99.2
40256,598120,590010,-1.5,7.25,60.0,99.3
40278,598116,590006,3.07,14.39,59.7,99.3
40300,598120,589988,8.07,22.32,59.6,99.3
40321,598127,589998,12.91,29.85,59.4,99.3
40342,597872,589778,19.87,38.7,59.3,99.2
40363,597856,589750,25.54,46.68,59.2,99.2
40385,597817,589710,29.57,52.51,59.1,99.2
40415,598232,590199,26.71,49.66,59.1,99.2
40437,598248,590232,25.93,49.25,58.8,99.3
40458,598300,590285,26.26,50.08,58.6,99.3
40480,598321,590339,27.38,51.55,58.4,99.3
40501,598352,590381,28.43,53.1,58.3,99.3
40522,598318,590332,29.03,54.19,58.1,99.3
40543,598302,590309,25.52,48.91,58.3,99.3
40564,598467,590554,19.02,39.46,58.4,99.2
40585,598261,590232,13.87,32.38,58.5,99.3
40615,597715,589424,14.59,33.69,61.2,99.2
40637,597702,589410,14.97,33.97,63.3,99.1
40658,597683,589378,17.26,35.64,64.9,99.1
40680,597666,589354,22.96,40.62,66.2,99.0
40701,597187,588696,34.67,53.04,67.1,98.8
40722,597174,588695,39.55,55.59,68.0,98.5
40743,597186,588686,37.08,49.27,68.6,98.5
40764,597176,588699,28.47,34.62,69.4,98.5
40794,597085,588633,15.64,13.89,70.1,98.4
40816,597085,588635,-1.68,-12.8,70.7,98.5
40838,597087,588649,-23.24,-45.37,74.2,98.5
40860,597097,588667,-47.73,-81.78,77.0,98.6
40882,597277,589023,-75.71,-123.8,79.3,98.7
40903,597303,589057,-102.06,-162.0,81.6,98.7
40924,597343,589110,-124.72,-194.09,83.5,98.7
40945,597363,589128,-138.65,-212.36,85.0,98.6
40966,597975,590039,-152.55,-230.17,86.1,98.4
40996,597999,590070,-156.74,-233.16,87.1,98.3
41018,598027,590105,-153.36,-225.07,87.9,98.2
41041,598048,590149,-142.67,-206.55,88.5,98.2
41063,598072,590170,-126.52,-179.98,89.0,98.2
41084,598514,590784,-111.69,-154.59,89.3,97.9
41105,598508,590769,-88.64,-118.51,89.7,97.8
41126,598499,590753,-62.38,-78.73,89.9,97.9
41147,598308,590390,-31.31,-31.77,92.6,98.0
41168,598311,590403,1.29,16.25,94.4,98.0
41199,598318,590404,32.59,60.83,95.9,98.1
41221,598308,590408,62.5,101.97,97.0,98.2
41244,598354,590442,90.15,139.28,97.6,98.2
41266,598346,590443,114.93,172.44,98.1,98.0
41287,598348,590438,132.88,195.34,98.5,98.0
41308,598339,590433,143.01,206.2,98.8,97.9
41329,598017,589934,149.94,212.45,98.7,97.9
41350,598009,589932,149.28,207.34,98.6,97.9
41380,598015,589935,142.83,193.85,98.6,97.8
41402,598005,589927,129.65,171.08,98.5,97.8
41426,597966,589880,110.94,140.64,98.5,97.7
41448,597958,589866,89.73,107.63,98.5,97.7
41469,597950,589857,70.22,77.98,98.5,97.7
41490,597950,589847,52.49,52.2,98.8,97.7
41511,597933,589832,35.72,28.24,99.0,97.8
41532,598098,590048,18.92,5.32,99.2,97.7
41553,598096,590055,2.37,-17.55,99.4,97.7
41583,598105,590074,-14.12,-40.15,99.5,97.8
41606,598221,590233,-31.07,-63.06,99.6,97.8
41630,598221,590228,-45.57,-82.35,99.7,97.8
41652,598228,590231,-56.02,-95.58,99.7,97.9
41673,598219,590227,-61.47,-101.55,99.8,97.9
41694,598209,590232,-63.08,-102.14,99.8,97.8
41714,598203,590173,-61.36,-97.35,99.9,97.8
41735,598215,590175,-57.62,-89.88,99.9,97.8
41756,598217,590176,-52.3,-80.9,99.9,97.8
41783,598126,590058,-44.05,-68.09,99.9,97.8
41812,598141,590049,-35.48,-54.5,101.1,97.8
41834,598133,590036,-27.25,-41.67,101.8,97.8
41856,598140,590019,-19.67,-29.62,101.5,97.8
41879,598113,590020,-13.64,-20.63,101.2,97.8
41900,598140,590073,-10.19,-15.5,101.3,97.8
41921,598135,590079,-9.46,-14.81,103.2,97.8
41942,598141,590088,-10.0,-16.0,104.8,97.8
41968,598141,590080,-11.72,-18.68,106.1,97.8
41991,598214,590221,-14.9,-23.95,107.9,97.9
42012,598222,590237,-17.64,-28.44,109.4,97.9
42034,598228,590244,-20.35,-32.71,110.6,97.9
42056,598235,590243,-22.98,-36.1,111.6,97.9
42078,598265,590310,-25.27,-38.82,112.3,97.9
42099,598274,590307,-25.09,-37.07,112.9,97.8
42120,598272,590316,-23.64,-33.28,113.4,97.8
42140,598280,590306,-21.71,-28.2,113.8,97.8
42169,598219,590238,-18.41,-21.17,114.1,97.8
42190,598213,590219,-14.93,-13.68,114.4,97.8
42212,598208,590214,-11.34,-6.33,113.7,97.8
42233,598197,590196,-7.92,0.43,113.2,97.8
42255,597975,589833,-2.05,10.5,107.2,97.8
42276,597959,589809,1.78,17.02,102.2,97.9
42297,597962,589797,5.3,22.52,98.2,97.9
42318,597953,589788,7.36,25.24,95.0,97.9
42339,597944,589776,7.95,25.3,92.4,97.8
42369,598033,589917,5.85,21.08,90.6,97.8
42390,598036,589920,3.51,16.54,89.2,97.8
42412,598035,589935,-0.4,9.52,88.0,97.8
42433,598039,589921,-5.47,0.76,87.1,97.8
42455,598062,589924,-12.38,-10.74,86.3,97.7
42476,598064,589926,-19.26,-22.3,85.7,97.7
42497,598058,589914,-26.16,-34.13,85.5,97.7
42518,598046,589917,-31.45,-43.72,85.3,97.7
42545,597930,589737,-33.18,-47.83,85.1,97.7
42567,597928,589724,-32.31,-48.25,85.0,97.8
42589,597921,589727,-29.54,-45.1,84.9,97.8
42611,597925,589719,-24.2,-37.5,84.8,97.8
42631,597825,589587,-19.07,-29.56,84.8,97.9
42659,597826,589598,-13.65,-21.5,84.7,97.8
42681,597832,589600,-9.6,-15.47,81.1,97.7
42702,597830,589598,-6.92,-12.02,78.2,97.7
42724,597974,589827,-7.85,-14.32,76.2,97.7
42745,597983,589842,-7.63,-14.46,74.9,97.7
42767,597982,589846,-7.82,-14.7,73.9,97.6
42788,597987,589857,-9.62,-16.89,73.1,97.6
42808,598060,590011,-11.32,-19.1,72.4,97.5
42830,598064,590003,-10.35,-16.96,71.3,97.5
42860,598060,590023,-8.17,-13.27,70.3,97.6
42882,598067,590034,-5.55,-8.67,69.6,97.8
42903,598280,590351,-4.54,-6.16,69.0,97.9
42924,598287,590354,0.63,2.43,68.5,98.3
42946,598290,590371,6.63,12.18,68.2,98.4
42966,598304,590379,14.72,25.29,67.6,98.5
42987,598349,590438,21.94,37.11,67.1,98.5
43008,598341,590420,29.67,49.5,66.7,98.3
43029,598326,590410,35.85,59.35,66.4,98.2
43058,598321,590386,40.6,67.31,66.2,98.1
43082,598323,590432,45.04,74.3,67.2,98.1
43103,598338,590452,48.19,78.97,68.2,97.8
43125,598353,590485,51.43,83.51,69.1,97.6
43149,598370,590499,53.96,86.86,69.7,97.5
43171,599021,591591,49.89,78.73,70.6,97.6
43192,599034,591640,45.72,70.48,71.3,97.9
43214,599046,591677,42.32,63.59,72.2,98.3
43235,599079,591711,38.36,56.58,72.8,98.6
43256,599099,591743,34.19,49.49,73.2,98.7
43278,599904,593136,22.21,29.3,72.5,99.3
43300,599950,593194,12.49,14.75,72.5,99.5
43321,599967,593244,9.77,11.25,72.5,99.4
43343,600056,593392,11.64,15.65,72.5,99.4
43365,600899,594869,10.47,14.69,72.5,99.5
43386,600915,594907,18.16,28.55,72.5,99.5
43407,600921,594938,32.79,53.73,72.5,99.5
43428,600947,594956,51.56,86.13,72.5,99.4
43449,601471,595930,66.99,112.18,72.5,99.5
43479,601490,595958,84.09,141.6,72.5,99.4
43501,601487,595989,100.31,169.51,68.4,99.3
43523,601526,596042,118.39,201.12,65.0,99.2
43545,601779,596500,135.43,230.51,62.2,99.4
43566,601785,596516,153.27,261.82,59.9,99.4
43587,601789,596500,168.04,288.63,57.8,99.5
43608,601787,596501,177.38,306.31,56.1,99.6
43630,601970,596853,180.76,313.53,54.7,99.6
43651,601970,596862,181.56,316.76,53.6,99.6
43681,601980,596875,177.22,311.16,53.6,99.6
43703,601984,596889,165.81,293.31,53.6,99.6
43724,602196,597292,149.28,266.13,53.6,99.6
43746,602203,597289,128.73,232.43,52.5,99.7
43767,602207,597284,106.12,194.68,51.7,99.7
43788,602199,597269,80.64,151.23,51.0,99.8
43809,602199,597273,54.1,105.47,50.5,99.8
43830,602007,596846,31.51,67.09,50.1,100.0
43861,602016,596846,9.69,29.56,49.7,100
43884,602015,596856,-11.78,-8.03,49.5,100
43906,602119,597036,-32.35,-44.1,49.3,100
43928,602125,597041,-52.17,-78.9,49.1,100
43949,602118,597044,-70.54,-111.6,48.9,100.0
43970,602120,597043,-88.21,-143.62,48.8,100.0
43991,602135,597045,-104.6,-173.98,48.8,99.9
44012,602034,596812,-119.0,-200.73,48.8,100.0
44033,602032,596802,-133.24,-228.05,48.8,100.0
44063,602018,596781,-146.4,-254.22,48.8,100.0
44087,601885,596499,-158.75,-279.1,48.8,100.0
44109,601866,596481,-170.51,-303.25,48.8,100.0
44131,601873,596485,-180.72,-324.23,48.8,100.0
44153,601877,596475,-187.55,-338.36,48.8,100.0
44174,601877,596474,-190.62,-344.89,48.8,100.0
44196,601851,596409,-191.12,-346.18,48.8,100.0
44218,601840,596404,-190.27,-345.29,48.8,100.0
44239,601845,596397,-189.02,-343.74,48.8,100.0
44260,601840,596388,-188.24,-343.39,48.8,100.0
44281,601826,596401,-187.66,-344.18,48.8,100
44303,601848,596419,-187.03,-344.35,48.8,100
44325,601858,596422,-185.27,-341.92,48.8,100
44346,601866,596443,-181.67,-335.54,48.8,100
44367,602028,596773,-177.01,-327.46,48.8,100
44389,602038,596771,-169.19,-312.74,48.8,100
44410,602041,596786,-159.0,-293.52,48.8,100
44431,602048,596797,-147.02,-270.9,48.8,100
44452,602049,596789,-133.25,-244.86,48.8,100
44473,602023,596718,-119.18,-217.77,48.8,100
44503,602005,596678,-104.77,-189.55,48.8,100
44525,601993,596649,-90.13,-161.09,48.8,100
44546,601772,596190,-72.73,-127.11,48.8,100
44568,601773,596193,-56.92,-96.36,48.8,100
44589,601786,596202,-40.78,-65.51,48.8,100
44610,601782,596207,-25.34,-36.7,48.8,100
44631,601779,596205,-11.02,-10.16,48.8,100
44652,601894,596406,0.02,10.32,48.8,100
44673,601891,596414,8.92,26.06,48.8,100
44703,601891,596414,14.57,35.16,48.8,100
44726,601929,596486,16.91,37.37,48.8,100
44747,601943,596494,17.96,37.16,48.8,100
44769,601944,596494,17.45,34.02,48.8,100
44790,601955,596497,16.08,29.56,48.8,100
44811,601939,596503,15.27,26.2,48.8,100
44832,601979,596552,15.9,26.13,48.8,100
44853,601987,596553,18.95,31.27,52.7,100
44874,601987,596558,24.8,42.25,52.7,100
44906,601989,596579,32.62,57.06,52.7,100
44929,602023,596641,39.6,70.95,52.7,100
44950,602026,596660,47.26,85.92,52.7,100
44972,602036,596653,54.13,99.49,52.7,100
44993,602027,596654,59.73,110.23,52.7,100
45014,602106,596792,62.92,116.26,52.7,100
45035,602110,596789,66.8,123.34,52.7,100
45056,602106,596802,69.58,128.09,52.7,100
45087,602098,596794,71.67,131.81,52.7,100
45111,602155,596913,71.5,132.02,52.7,100
45133,602156,596929,71.74,132.86,52.7,100
45155,602164,596927,73.36,136.26,52.7,100
45176,602156,596932,74.22,138.25,52.7,100
45197,602185,596972,74.02,138.75,52.7,100
45218,602183,596983,73.89,138.99,52.7,100
45239,602181,596967,75.2,141.58,52.7,100
45260,602185,596951,75.46,142.52,52.7,100
45290,601860,596284,78.76,149.59,52.7,100
45312,601846,596267,79.39,151.36,52.7,100
45336,601848,596258,79.12,151.62,52.7,100
45359,601845,596243,77.01,148.51,52.7,100
45380,601831,596243,70.87,137.98,52.7,100
45401,601863,596278,64.72,126.87,52.7,100
45422,601845,596281,59.37,115.99,52.7,100
45443,601855,596290,52.6,102.26,52.7,100
45464,601924,596443,43.59,83.41,52.7,100
45494,601928,596448,30.16,56.66,58.2,100
45516,601927,596431,17.73,31.53,62.5,100
45538,601932,596442,5.32,5.91,66.2,100
45560,601923,596456,-6.4,-18.77,69.2,100
45581,601908,596410,-19.96,-45.46,71.8,100
45602,601913,596419,-28.01,-61.14,74.1,100
45623,601918,596430,-30.33,-65.32,76.0,100
45645,601914,596451,-28.78,-61.83,77.4,100
45675,601930,596448,-27.68,-58.05,81.3,100
45697,601931,596462,-24.18,-49.84,84.4,100
45720,601935,596485,-19.81,-40.5,86.9,100
45743,601970,596554,-14.67,-29.75,87.4,100
45765,601970,596554,-11.19,-22.16,89.3,100
45786,601976,596569,-7.94,-15.44,90.8,100
45807,601975,596569,-5.29,-9.93,92.0,100
45828,601954,596541,-3.05,-5.39,92.9,100
45849,601953,596554,-2.02,-3.22,93.7,100
45879,601970,596566,-0.82,-0.57,94.3,100
45901,601955,596558,0.71,2.32,94.8,100
45924,601897,596462,3.16,6.95,95.2,100
45946,601901,596466,5.02,10.5,95.5,100
45969,601905,596465,6.27,13.04,95.8,100
45990,601912,596474,7.5,15.64,96.0,100
46011,601919,596479,8.55,18.03,96.1,100
46032,601882,596434,9.6,20.07,96.3,100
46053,601886,596415,10.64,22.69,96.4,100
46084,601856,596378,10.71,22.97,96.4,100
46106,601574,595824,12.57,26.86,95.1,100
46129,601581,595815,12.29,26.76,93.7,100
46151,601571,595815,10.7,23.6,92.4,100
46173,601561,595812,8.74,19.34,91.5,100
46194,601565,595807,6.3,14.24,90.9,100
46215,601505,595696,4.1,9.49,90.3,100
46236,601505,595684,1.92,4.85,90.2,100
46267,601496,595665,-0.77,-1.08,89.8,100
46289,601422,595574,-3.2,-7.19,89.5,100
46310,601428,595579,-7.27,-15.88,89.2,100
46334,601438,595583,-13.1,-27.73,89.3,100
46356,601433,595567,-19.91,-41.35,89.6,100
46379,601423,595571,-26.74,-55.23,89.9,100
46400,601320,595377,-31.51,-64.99,90.1,100
46421,601323,595382,-34.2,-70.42,90.2,100
46442,601314,595374,-34.43,-71.04,90.4,100
46472,601316,595386,-33.67,-69.26,90.5,100
46494,601317,595408,-30.98,-64.01,90.6,100
46515,601320,595423,-28.15,-58.55,90.9,100
46539,601334,595425,-25.47,-52.69,91.2,100
46561,601344,595436,-22.48,-46.03,91.4,100
46583,601357,595514,-19.64,-40.28,91.6,100
46604,601363,595515,-17.82,-36.42,91.7,100
46625,601369,595525,-15.03,-30.61,92.1,100
46655,601356,595520,-11.94,-24.57,92.5,100
46677,601358,595535,-9.0,-18.59,92.7,100
46698,601367,595540,-5.89,-11.91,92.9,100
46720,601359,595528,-1.82,-3.31,93.1,100
46741,601359,595523,3.35,7.3,93.2,100
46766,601421,595642,7.62,16.06,93.3,100
46788,601419,595658,13.44,27.6,92.8,100
46809,601418,595657,18.28,37.16,91.9,100
46831,601424,595658,22.56,45.65,91.2,100
46853,601420,595661,26.5,53.24,90.6,100
46874,601409,595643,29.89,59.85,90.7,100
46895,601399,595626,31.99,64.05,90.7,100
46916,601387,595604,33.78,67.23,89.0,100
46937,601394,595600,34.89,69.12,87.4,100
46966,601086,595003,40.35,79.28,85.9,100
46989,601076,594990,41.81,81.49,84.7,100
47011,601082,595002,42.68,82.46,83.6,100
47033,601141,595145,42.16,80.62,82.9,100
47055,601149,595152,41.0,77.68,82.3,100
47076,601149,595151,38.34,72.22,82.1,100
47097,601151,595155,34.12,63.78,81.9,100
47118,601146,595154,28.61,52.62,81.7,100
47139,601169,595201,21.7,38.54,81.6,100
47168,601166,595185,13.42,22.08,81.5,100
47190,601158,595198,4.24,3.44,81.6,100
47211,601154,595192,-4.73,-14.4,81.7,100
47232,601167,595191,-12.76,-30.05,81.8,100
47254,601154,595199,-18.69,-41.7,81.9,100
47275,601162,595202,-20.65,-44.94,82.0,100
47296,601166,595205,-18.26,-39.67,82.0,100
47317,601209,595289,-14.28,-31.35,82.0,100
47338,601211,595298,-10.43,-23.49,82.1,100
47368,601199,595305,-6.76,-16.47,80.7,100
47390,601218,595323,-3.78,-10.32,79.5,100
47411,601279,595438,-1.7,-6.02,78.6,100
47433,601280,595440,0.29,-1.79,77.9,100
47454,601278,595448,2.2,2.07,77.7,100
47475,601282,595448,3.8,5.45,77.5,100
47496,601267,595437,5.44,8.76,77.4,100
47517,601264,595426,8.76,15.44,76.2,100
47538,601263,595434,11.4,20.6,74.9,100
47569,601264,595431,13.75,25.33,76.6,100
47591,601291,595502,15.62,28.94,74.9,100
47612,601288,595502,17.49,32.54,73.6,100
47634,601293,595497,18.84,35.57,72.5,100
47655,601295,595502,19.75,37.48,71.6,100
47676,601285,595480,20.21,38.51,70.9,100
47697,601273,595437,19.82,37.89,73.2,100
47718,601261,595440,18.87,36.05,75.0,100
47739,601245,595415,17.27,33.24,76.4,100
47769,600999,594931,17.78,34.69,76.3,100
47794,601002,594931,16.62,32.73,76.1,100
47816,601000,594920,14.83,29.65,75.9,100
47838,600997,594913,12.83,25.98,75.7,100
47860,600988,594926,10.7,21.53,75.5,100
47881,601042,595001,7.59,15.29,75.8,100
47902,601040,595001,3.98,8.08,76.0,100
47923,601038,595002,-0.71,-1.56,76.2,100
47953,601020,594959,-5.96,-12.27,76.4,100
47975,601021,594958,-12.47,-25.23,77.1,100
48000,601022,594943,-20.05,-40.0,77.9,100
48023,601005,594927,-27.37,-54.46,78.7,100
48045,600802,594521,-32.03,-63.54,79.7,100
48068,600794,594526,-36.02,-71.65,80.4,100
48090,600792,594521,-37.78,-75.46,81.0,100
48111,600797,594518,-36.86,-73.68,81.5,100
48132,600785,594495,-33.69,-67.67,81.8,100
48153,600752,594479,-29.34,-59.83,82.1,100
48174,600761,594482,-25.82,-53.22,82.4,100
48201,600764,594469,-23.34,-48.45,83.0,100
48223,600761,594473,-22.28,-46.56,83.6,100
48245,600756,594476,-22.89,-48.01,84.0,100
48267,600752,594483,-24.23,-50.76,84.3,100
48287,600740,594471,-26.47,-54.85,84.6,100
48309,600753,594480,-28.91,-58.92,84.8,100
48330,600711,594388,-29.19,-58.38,85.0,100
48351,600691,594372,-28.37,-55.87,84.7,100
48372,600685,594369,-26.02,-50.5,84.4,100
48403,600639,594282,-22.16,-42.24,84.2,100
48425,600636,594271,-18.03,-33.21,84.0,100
48446,600636,594256,-13.66,-23.62,83.4,100
48468,600631,594247,-9.4,-14.36,83.0,100
48489,600623,594250,-5.31,-6.04,82.6,100
48510,600385,593806,1.06,6.31,83.0,100
48531,600372,593776,5.27,14.86,83.0,100
48552,600366,593748,7.83,20.34,83.1,100
48582,600351,593722,9.29,23.28,83.1,100
48605,600100,593263,13.23,30.32,82.7,100
48627,600106,593274,13.67,30.78,82.4,100
48649,600100,593273,13.07,29.25,82.4,100
48670,600096,593275,11.48,25.81,82.3,100
48691,600085,593245,8.67,20.07,82.5,100
48712,600079,593252,5.26,12.74,82.7,100
48733,600090,593267,0.35,2.85,82.8,100
48754,600082,593249,-5.84,-9.06,82.9,100
48784,600060,593191,-13.4,-23.16,83.2,100
48806,600050,593178,-20.67,-37.11,83.5,100
48829,600046,593173,-26.9,-49.05,83.9,100
48851,600039,593166,-31.48,-57.91,84.3,100
48872,599984,593065,-32.71,-60.22,84.6,100
48893,599987,593070,-32.19,-58.99,84.8,100
48914,599992,593072,-28.94,-52.32,85.0,100
48935,599989,593057,-22.91,-40.55,85.1,100
48967,600012,593102,-16.41,-28.32,85.2,100
48989,600008,593104,-10.11,-16.63,85.3,100
49010,600007,593108,-3.75,-5.16,85.9,100
49033,600004,593124,2.19,5.19,86.4,100
49054,600044,593205,6.95,13.38,86.8,100
49075,600049,593201,10.98,20.49,87.0,100
49096,600044,593199,14.43,26.59,87.3,100
49117,600054,593185,17.28,32.08,87.5,100
49138,600055,593202,19.98,37.14,87.6,100
49169,600034,593197,22.91,42.12,87.7,100
49191,600034,593206,28.12,51.93,87.3,100
49212,600035,593199,31.99,59.26,87.0,100
49235,600032,593202,35.6,66.2,86.8,100
49256,600044,593234,38.32,71.5,86.5,100
49277,600053,593231,40.41,76.09,86.4,100
49298,600041,593228,42.14,79.72,86.2,100
49319,600049,593238,43.13,82.01,86.1,100
49350,599917,592994,45.47,86.8,85.8,100
49372,599910,592965,45.62,87.21,85.3,100
49393,599895,592941,44.78,85.8,84.7,100
49415,599885,592915,43.32,83.36,84.2,100
49438,599703,592585,43.12,83.38,83.6,100
49459,599702,592581,41.32,80.64,83.1,100
49480,599704,592592,38.67,75.77,82.7,100
49501,599711,592591,35.16,69.08,82.4,100
49522,599737,592648,30.66,60.11,82.1,100
49553,599741,592658,24.83,48.49,82.3,100
49575,599743,592669,18.6,35.98,82.5,100
49596,599750,592672,11.41,21.6,82.7,100
49618,599758,592675,3.48,6.24,82.8,100
49641,599746,592680,-4.54,-9.64,83.2,100
49662,599752,592672,-12.08,-24.21,83.7,100
49683,599759,592679,-17.89,-35.34,84.1,100
49704,599740,592652,-22.2,-43.56,84.4,100
49725,599745,592657,-24.8,-48.58,84.7,100
49752,599747,592648,-25.18,-49.15,84.9,100
49774,599746,592648,-22.92,-45.03,85.0,100
49795,599802,592769,-19.68,-39.23,85.2,100
49817,599806,592760,-15.85,-32.13,84.4,100
49842,599808,592768,-12.26,-25.62,83.7,100
49864,599815,592778,-9.08,-19.76,83.2,100
49885,599859,592871,-6.94,-16.1,82.8,100
49906,599867,592876,-4.95,-12.54,82.4,100
49936,599880,592872,-3.43,-9.5,82.2,100
49958,599867,592875,-1.54,-6.32,81.9,100
49979,599896,592934,0.2,-3.45,81.8,100
50001,599894,592933,3.31,2.28,81.6,100
50022,599896,592942,5.88,7.05,81.1,100
50054,599900,592948,8.31,11.81,80.7,100
50075,599979,593062,9.97,15.47,80.3,100
50097,599979,593071,11.99,19.43,80.0,100
50119,599976,593080,13.6,22.6,79.8,100
50140,599984,593083,14.79,25.1,79.7,100
50161,599976,593069,15.57,26.74,79.9,100
50182,600026,593171,15.6,27.01,80.2,100
50203,600018,593159,15.59,27.19,80.3,100
50233,600015,593163,15.3,26.86,80.5,100
50255,599780,592687,17.28,31.32,80.0,100
50276,599769,592662,18.92,35.2,79.2,100
50298,599746,592633,19.63,36.74,78.5,100
50319,599735,592620,19.66,36.67,77.8,100
50340,599732,592603,19.06,35.51,77.3,100
50361,599693,592528,18.21,33.87,76.8,100
50383,599707,592553,15.94,29.55,76.4,100
50404,599712,592547,11.6,21.85,76.3,100
50435,599708,592559,6.16,11.9,76.3,100
50458,599710,592552,-0.35,-0.12,76.2,100
50479,599715,592563,-8.11,-14.68,76.5,100
50501,599717,592573,-17.34,-32.17,76.8,100
50522,599716,592573,-26.46,-49.61,77.2,100
50543,599729,592584,-35.06,-65.85,76.8,100
50564,599727,592583,-41.14,-77.35,76.4,100
50585,599725,592587,-43.84,-82.5,76.2,100
50615,599761,592652,-44.39,-83.42,75.9,100
50637,599769,592648,-43.09,-80.74,75.7,100
50662,599772,592641,-40.65,-75.87,75.6,100
50684,599775,592651,-37.4,-69.61,75.5,100
50705,599838,592773,-34.23,-63.46,75.8,100
50726,599840,592769,-30.5,-56.16,76.0,100
50747,599838,592762,-25.48,-46.43,75.8,100
50768,599839,592766,-20.97,-37.76,75.6,100
50789,599831,592773,-16.56,-29.58,75.5,100
50818,599936,592942,-13.37,-23.47,75.4,100
50841,599937,592943,-8.26,-14.07,75.0,100
50865,599929,592945,-4.09,-6.75,74.6,100
50888,599967,593004,-0.52,-0.44,74.3,100
50909,599962,593003,3.1,5.78,74.1,100
50930,599961,593005,6.59,11.86,73.9,100
50951,599966,593001,9.79,17.64,73.8,100
50972,599960,592999,12.68,22.98,73.6,100
50993,600039,593138,14.43,26.56,73.5,100
51023,600044,593153,15.95,29.71,73.5,100
51045,600043,593160,17.6,33.06,73.4,100
51066,600085,593216,18.56,35.55,73.4,100
51089,600088,593200,19.7,38.38,73.3,100
51110,600081,593207,21.04,41.14,73.3,100
51131,600070,593195,21.73,42.57,73.3,100
51152,600067,593190,21.45,42.32,73.4,100
51173,599794,592679,23.46,46.33,73.4,100
51204,599797,592672,24.19,47.96,73.3,100
51226,599795,592652,23.22,46.32,73.3,100
51249,599789,592663,21.87,43.46,73.3,100
51271,599826,592701,20.21,40.24,73.3,100
51294,599815,592711,18.21,35.94,73.6,100
51315,599826,592709,15.18,30.11,73.9,100
51336,599824,592705,10.51,21.07,74.1,100
51357,599869,592788,4.01,8.73,74.3,100
51379,599867,592785,-3.5,-5.56,74.6,100
51410,599868,592786,-12.07,-22.03,75.1,100
51432,599868,592788,-21.07,-38.87,75.4,100
51454,599840,592723,-29.31,-54.25,75.4,100
51476,599855,592715,-36.24,-67.09,75.3,100
51499,599840,592728,-39.77,-74.39,75.2,100
51520,599844,592727,-39.37,-73.95,75.2,100
51541,599869,592737,-36.37,-68.15,75.1,100
51562,599861,592762,-32.19,-60.66,75.1,100
51583,599866,592763,-27.1,-51.22,75.1,100
51614,599873,592792,-22.88,-43.63,75.1,100
51636,599898,592830,-19.16,-36.85,75.1,100
51658,599889,592810,-15.65,-30.4,75.0,100
51682,599890,592806,-11.99,-23.67,75.0,100
51704,599894,592812,-9.36,-18.99,74.7,100
51725,599931,592871,-7.91,-16.45,74.4,100
51746,599929,592880,-6.53,-14.11,74.1,100
51767,599930,592879,-5.13,-11.54,73.9,100
51788,599926,592880,-3.47,-8.19,74.1,100
51818,599856,592762,-0.72,-2.67,74.3,100
51840,599856,592754,1.68,2.43,76.4,100
51863,599852,592760,3.75,6.95,78.0,100
51886,599863,592759,5.5,11.04,79.1,100
51909,599866,592776,6.9,14.14,78.2,100
51930,599868,592772,7.98,16.49,77.6,100
51951,599861,592759,8.77,18.04,77.1,100
51972,599854,592764,9.33,18.91,76.7,100
52002,599623,592297,11.76,23.95,76.9,100
52024,599601,592274,13.17,26.65,76.7,100
52045,599595,592249,11.84,24.72,76.8,100
52068,599578,592239,9.78,21.24,76.8,100
52090,599475,592021,8.17,18.82,76.8,100
52113,599464,592032,5.87,14.51,76.8,100
52134,599474,592028,2.97,9.14,76.9,100
52155,599470,592039,-0.27,2.67,77.1,100
52176,599476,592040,-3.85,-4.24,77.2,100
52207,599524,592140,-9.26,-14.79,77.6,100
52229,599526,592137,-14.95,-25.77,78.5,100
52250,599536,592143,-21.58,-38.35,79.2,100
52273,599494,592062,-28.1,-50.79,80.1,100
52295,599491,592062,-34.02,-62.18,80.7,100
52318,599498,592052,-38.28,-70.09,81.2,100
52339,599490,592060,-39.17,-72.08,83.2,100
52360,599505,592066,-37.67,-69.38,84.7,100
52391,599570,592196,-35.82,-66.13,86.5,100
52413,599569,592194,-31.41,-57.97,88.0,100
52434,599578,592207,-25.77,-47.57,89.1,100
52456,599644,592334,-19.72,-36.62,90.1,100
52478,599659,592330,-13.31,-24.78,90.8,100
52501,599643,592324,-5.99,-11.54,90.8,100
52524,599652,592325,-0.25,-1.15,90.8,100
52545,599721,592447,3.71,5.73,90.8,100
52568,599720,592452,7.54,12.25,90.9,100
52590,599713,592455,11.78,19.65,90.9,100
52611,599729,592461,16.63,28.63,90.9,100
52632,599724,592460,21.76,38.03,90.9,100
52653,599737,592496,26.74,47.13,90.9,100
52674,599735,592490,31.5,55.74,90.9,100
52705,599740,592501,35.33,62.74,90.4,100
52727,599813,592626,37.52,66.65,90.5,100
52748,599812,592615,39.26,69.78,90.6,100
52770,599800,592623,40.52,71.81,90.6,100
52791,599817,592628,40.72,72.53,90.7,100
52812,599807,592614,40.4,72.34,90.7,100
52833,599513,592072,42.73,77.15,88.8,100
52854,599518,592074,42.6,77.54,87.0,100
52875,599513,592055,41.06,75.53,85.6,100
52907,599528,592101,38.72,71.73,84.5,100
52929,599544,592094,35.74,66.9,83.6,100
52950,599531,592100,32.43,60.94,82.9,100
52972,599534,592117,28.84,54.28,82.5,100
52993,599545,592108,24.45,46.37,82.2,100
53014,599563,592155,18.83,35.84,82.0,100
53035,599564,592144,11.83,22.81,81.8,100
53056,599569,592142,2.77,6.15,81.9,100
53082,599565,592150,-7.41,-12.95,82.0,100
53104,599532,592060,-16.99,-30.82,82.0,100
53126,599527,592058,-25.08,-46.04,82.0,100
53148,599528,592049,-30.15,-55.51,82.1,100
53169,599525,592061,-31.3,-57.98,82.1,100
53190,599541,592112,-30.03,-55.89,82.1,100
53211,599552,592119,-27.59,-51.39,82.1,100
53232,599542,592119,-25.01,-46.78,82.1,100
53253,599555,592127,-22.4,-41.98,80.7,100
53284,599565,592128,-19.95,-37.57,79.6,100
53306,599561,592136,-17.69,-33.79,79.0,100
53328,599556,592132,-15.76,-30.53,78.6,100
53350,599551,592133,-14.23,-28.07,78.3,100
53371,599551,592118,-12.91,-25.63,77.6,100
53392,599527,592097,-11.46,-22.84,77.1,100
53413,599540,592099,-8.85,-17.32,76.3,100
53434,599537,592101,-6.19,-11.6,75.3,100
53455,599537,592088,-4.15,-6.7,74.2,100
53486,599564,592155,-2.62,-3.35,73.3,100
53508,599571,592145,-1.17,0.18,72.6,100
53530,599556,592138,0.28,2.86,72.0,100
53552,599562,592156,1.15,4.43,71.6,100
53573,599574,592157,1.57,5.42,71.2,100
53594,599560,592159,1.64,5.49,71.3,100
53615,599570,592167,1.48,5.4,71.3,100
53636,599568,592160,1.33,5.24,71.3,100
53657,599294,591659,4.29,10.59,72.3,100
53688,599280,591619,6.8,15.28,72.8,100
53712,599265,591625,7.58,16.34,73.2,100
53734,599259,591589,8.33,17.45,73.6,100
53756,599233,591557,8.92,18.24,73.9,100
53777,599244,591558,8.53,17.7,74.1,100
53798,599238,591555,7.31,15.3,74.3,100
53819,599237,591558,4.84,10.65,74.4,100
53840,599296,591653,0.48,2.63,74.7,100
53871,599296,591657,-5.16,-7.75,76.0,100
53893,599304,591660,-11.74,-19.95,76.4,100
53917,599301,591661,-19.01,-33.46,76.7,100
53939,599283,591610,-25.91,-46.28,77.1,100
53960,599284,591603,-32.01,-57.52,77.9,100
53982,599275,591605,-35.35,-64.08,78.6,100
54003,599268,591597,-34.77,-63.3,79.1,100
54024,599312,591653,-31.89,-58.19,79.5,100
54045,599301,591656,-26.85,-49.6,79.8,100
54075,599310,591661,-21.34,-39.98,80.0,100
54097,599309,591676,-15.26,-29.56,80.3,100
54121,599342,591725,-9.77,-19.9,80.4,100
54144,599345,591731,-4.71,-11.24,80.6,100
54166,599381,591736,-0.68,-3.67,80.7,100
54187,599354,591739,2.77,2.03,80.7,100
54208,599364,591776,5.22,5.87,80.8,100
54229,599384,591765,8.17,11.75,80.9,100
54256,599367,591779,11.3,17.19,80.5,100
54278,599365,591786,14.03,22.38,80.2,100
54299,599439,591880,15.9,26.42,79.9,100
54321,599372,591782,19.22,32.77,79.7,100
54343,599447,591890,21.01,36.39,79.6,100
54366,599446,591899,22.72,39.65,79.4,100
54387,599507,592008,23.44,40.95,79.3,100
54408,599514,592011,24.12,42.23,79.3,100
54429,599525,592015,24.1,42.32,79.2,100
54459,599514,592020,24.19,42.46,79.2,100
54481,599515,592019,23.83,42.3,79.1,100
54503,599476,591945,24.33,43.86,79.1,100
54525,599474,591930,24.39,44.52,79.1,100
54547,599463,591915,24.65,45.27,78.8,100
54570,599115,591287,28.67,52.42,78.4,100
54591,599114,591289,30.77,55.89,78.1,100
54612,599109,591283,31.32,56.24,77.7,100
54633,599120,591278,31.03,55.55,77.5,100
54664,599153,591354,29.09,51.78,77.4,100
54686,599149,591338,25.8,45.73,77.5,100
54707,599148,591331,20.93,37.12,77.6,100
54730,599138,591326,13.96,24.45,77.7,100
54752,599137,591319,5.39,9.22,77.9,100
54775,599136,591322,-4.71,-8.86,78.1,100
54796,599143,591323,-15.5,-28.16,78.5,100
54817,599142,591325,-26.13,-47.45,78.8,100
54848,599066,591183,-35.29,-63.77,79.0,100
54870,599066,591180,-42.57,-76.79,79.2,100
54891,599065,591172,-46.37,-83.61,79.4,100
54913,599054,591163,-45.59,-82.3,79.5,100
54935,599052,591160,-41.89,-75.73,79.0,100
54958,599085,591217,-37.83,-68.38,78.6,100
54980,599081,591209,-33.5,-60.36,78.2,100
55001,599091,591213,-29.7,-53.39,78.0,100
55024,599091,591231,-26.59,-47.77,77.8,100
55046,599093,591224,-23.6,-42.27,77.6,100
55067,599085,591228,-19.54,-35.06,77.5,100
55088,599089,591220,-16.57,-29.62,77.4,100
55109,599098,591224,-14.31,-25.35,76.9,100
55130,599082,591216,-12.17,-21.62,76.5,100
55160,599086,591210,-9.95,-17.34,76.2,100
55182,599083,591218,-6.98,-12.04,76.0,100
55204,599086,591219,-3.67,-5.94,75.8,100
55226,599126,591281,-0.8,-0.51,75.6,100
55247,599113,591282,2.47,5.39,75.5,100
55268,599112,591275,5.47,10.9,75.4,100
55289,599122,591280,7.77,15.37,75.7,100
55310,599141,591325,9.45,18.44,75.9,100
55331,599133,591323,10.98,21.28,75.8,100
55361,599139,591326,12.09,23.35,75.6,100
55384,599145,591332,13.04,25.22,75.5,100
55405,598918,590928,16.31,31.05,75.8,100
55427,598901,590890,18.35,34.85,75.8,100
55448,598891,590858,19.73,37.8,75.6,100
55469,598878,590840,20.9,40.04,75.5,100
55490,598785,590698,22.45,42.81,75.6,100
55511,598790,590700,22.77,43.49,75.7,100
55541,598795,590698,21.94,42.04,75.7,100
55563,598791,590697,19.18,36.86,75.8,100
55586,598798,590706,15.47,29.89,76.0,100
55608,598802,590708,10.77,21.39,76.2,100
55630,598789,590712,5.02,10.44,76.3,100
55651,598788,590705,-2.12,-2.76,76.5,100
55672,598801,590706,-10.0,-17.19,76.5,100
55693,598825,590711,-17.77,-31.02,76.6,100
55714,598805,590710,-23.66,-42.11,76.7,100
55744,598798,590706,-26.73,-47.91,76.7,100
55766,598808,590715,-27.41,-49.11,76.8,100
55788,598811,590722,-26.59,-47.62,76.8,100
55810,598809,590717,-24.3,-43.42,76.8,100
55831,598809,590712,-20.65,-37.12,76.8,100
55852,598811,590716,-16.41,-29.79,76.9,100
55873,598867,590812,-12.72,-23.33,76.9,100
55894,598864,590827,-7.67,-14.7,76.9,100
55915,598868,590822,-3.0,-6.55,76.9,100
55946,598883,590848,0.48,-0.86,76.9,100
55968,598891,590849,3.87,4.89,76.9,100
55990,598890,590846,7.07,10.37,76.9,100
56012,598895,590852,9.72,15.33,76.9,100
56033,598889,590847,12.13,19.93,76.9,100
56054,598927,590935,13.94,23.05,76.9,100
56075,598934,590945,15.44,25.77,76.9,100
56096,598936,590942,17.01,28.68,76.9,100
56127,598964,591003,18.57,31.45,76.9,100
56149,598973,590998,20.24,34.7,76.9,100
56171,598970,591010,21.94,37.84,76.9,100
56193,598962,591011,23.36,40.27,76.9,100
56214,598970,591017,23.87,41.11,76.9,100
56235,598932,590912,24.51,42.5,77.5,100
56256,598913,590887,24.43,42.56,77.8,100
56277,598901,590887,24.35,42.42,78.0,100
56298,598892,590876,24.05,42.22,78.2,100
56329,598734,590572,26.21,46.67,78.0,100
56351,598743,590576,25.52,46.28,77.8,100
56375,598750,590577,24.2,44.51,77.6,100
56397,598744,590589,22.08,41.0,77.5,100
56418,598829,590737,18.53,34.49,77.5,100
56439,598833,590737,14.42,27.01,77.6,100
56460,598829,590739,8.99,17.21,77.7,100
56481,598826,590743,3.33,6.59,77.7,100
56502,598833,590753,-2.75,-4.87,78.0,100
56532,598895,590845,-10.32,-18.61,78.4,100
56554,598892,590853,-16.11,-29.48,78.7,100
56575,598891,590855,-21.56,-39.44,79.0,100
56600,598885,590821,-25.31,-46.2,79.2,100
56622,598884,590819,-27.36,-50.14,79.3,100
56644,598890,590833,-26.52,-49.15,79.7,100
56665,598889,590847,-23.09,-43.06,80.0,100
56686,598951,590950,-18.98,-35.48,80.2,100
56713,598942,590936,-14.39,-26.9,80.4,100
56735,598937,590958,-9.91,-18.88,80.5,100
56756,598938,590947,-6.39,-12.31,80.6,100
56778,598946,590955,-3.51,-6.93,80.7,100
56800,598949,590958,0.52,0.44,80.8,100
56823,598951,590961,3.25,5.4,80.4,100
56844,598948,590966,4.88,8.28,80.1,100
56865,598946,590960,5.42,9.53,79.9,100
56886,598947,590972,5.4,9.61,79.7,100
56916,598947,590955,5.67,10.64,81.9,100
56938,598937,590968,6.22,11.92,83.7,100
56959,598956,590969,6.61,13.37,85.2,100
56983,598986,591046,6.58,13.56,83.9,100
57005,598989,591050,6.2,13.04,82.9,100
57027,598989,591043,5.32,11.87,82.1,100
57048,598822,590747,5.94,13.07,82.1,100
57069,598812,590732,5.97,13.04,81.9,100
57090,598786,590702,5.6,12.11,81.5,100
57120,598781,590672,4.83,10.93,81.2,100
57142,598772,590653,3.79,9.28,81.0,100
57163,598635,590448,4.55,10.34,80.6,100
57185,598643,590446,3.15,7.84,80.3,100
57208,598650,590461,1.36,4.59,80.2,100
57231,598694,590542,-1.46,-0.49,80.2,100
57252,598706,590553,-4.93,-6.79,80.3,100
57273,598702,590554,-9.09,-14.39,80.5,100
57303,598703,590541,-14.74,-24.55,80.8,100
57325,598702,590563,-21.33,-36.63,81.1,100
57346,598700,590565,-27.7,-48.26,81.6,100
57367,598698,590544,-32.81,-57.39,81.9,100
57389,598696,590560,-36.18,-63.45,82.2,100
57411,598699,590553,-37.69,-66.1,82.4,100
57433,598704,590561,-37.72,-66.11,82.6,100
57454,598700,590567,-36.26,-63.6,82.7,100
57475,598700,590565,-32.6,-57.26,82.9,100
57506,598768,590691,-28.01,-49.37,83.9,100
57528,598773,590690,-22.53,-39.78,84.8,100.0
57549,598781,590694,-17.51,-30.95,85.5,100.0
57571,598777,590701,-12.97,-23.19,86.0,100
57592,598773,590705,-9.01,-16.4,86.5,100
57614,598810,590769,-5.95,-10.95,86.8,100
57636,598809,590773,-1.93,-3.8,87.1,100
57657,598814,590788,1.5,2.17,86.8,100
57678,598823,590797,4.68,7.77,86.6,100
57700,598804,590767,8.12,13.75,86.4,100
57721,598811,590781,11.82,20.06,86.3,100
57742,598814,590773,15.19,26.07,87.2,100
57763,598814,590779,18.42,31.8,87.7,100
57784,598856,590874,20.62,35.46,87.3,100
57814,598860,590881,22.28,38.32,87.0,100
57836,598862,590869,23.12,40.13,86.7,100
57857,598850,590876,23.53,40.79,86.5,100.0
57880,598865,590881,23.34,40.9,86.4,100.0
57902,598695,590560,24.69,43.87,85.5,100
57923,598685,590547,24.81,44.44,84.6,100
57944,598665,590519,24.45,43.66,83.9,100
57966,598529,590301,24.92,44.01,83.1,100
57987,598530,590310,23.96,41.92,82.5,100.0
58017,598528,590318,22.54,39.05,82.0,99.9
58039,598542,590321,20.56,35.57,81.6,100.0
58060,598555,590338,17.91,31.04,81.5,100
58083,598645,590510,12.74,22.01,81.4,100
58104,598646,590509,7.68,12.92,81.4,100
58125,598648,590513,1.38,1.33,81.5,100
58146,598625,590468,-5.73,-11.53,81.9,100
58167,598634,590437,-13.64,-25.2,82.2,100.0
58188,598615,590444,-20.92,-38.25,82.4,100
58218,598611,590427,-27.11,-48.92,82.6,100
58240,598600,590431,-30.26,-54.26,82.7,100
58262,598593,590417,-30.61,-54.55,82.9,100
58284,598595,590410,-28.56,-50.81,83.0,100
58305,598588,590420,-23.82,-42.89,83.0,100
58326,598610,590417,-18.1,-32.99,83.3,100
58347,598628,590476,-12.61,-24.03,82.4,100
58368,598624,590479,-7.77,-16.07,81.7,100
58398,598629,590471,-4.55,-10.67,81.2,100
58422,598626,590486,-2.76,-8.07,80.7,100
58445,598664,590558,-2.76,-8.31,80.8,100
58467,598668,590555,-2.11,-6.89,80.4,100
58488,598674,590549,-1.42,-5.06,80.1,100
58509,598669,590554,-0.48,-2.87,79.9,100
58530,598667,590557,0.75,-0.21,79.7,100
58551,598658,590562,3.49,4.82,76.8,99.9
58572,598659,590567,5.51,8.51,74.2,100.0
58602,598661,590553,7.51,12.38,72.1,100
58626,598693,590631,9.08,15.03,70.5,100
58648,598701,590634,10.4,17.74,69.4,100
58671,598701,590628,11.69,20.56,68.9,100
58692,598704,590640,12.76,22.76,68.4,100
58713,598725,590679,13.38,24.03,68.1,100.0
58734,598729,590669,13.67,24.98,67.8,100.0
58755,598714,590652,13.21,24.5,70.0,100
58776,598695,590616,12.8,24.09,71.8,100
58807,598355,590043,15.75,29.47,72.8,100
58831,598368,590046,16.63,31.77,73.5,100
58853,598361,590029,16.85,32.61,74.0,100
58875,598358,590026,16.74,32.42,74.4,100
58896,598447,590195,15.28,29.41,74.7,100
58917,598451,590205,13.36,25.45,75.1,100
58938,598457,590193,10.52,20.03,75.7,100
58959,598453,590193,6.76,12.66,76.1,100
58989,598489,590268,1.11,2.15,76.5,100
59012,598491,590267,-5.46,-9.78,77.0,100
59036,598493,590265,-13.19,-23.58,77.4,100
59059,598494,590264,-21.96,-39.01,77.7,100.0
59080,598425,590171,-29.32,-52.31,77.9,100
59101,598425,590176,-35.07,-62.62,78.1,100
59122,598419,590163,-36.99,-66.2,77.9,100
59144,598445,590176,-34.9,-62.17,77.7,100
59165,598472,590246,-29.81,-53.5,77.5,100
59195,598470,590244,-23.54,-42.46,77.4,100
59217,598478,590246,-17.58,-31.9,77.3,100
59242,598471,590255,-12.43,-23.05,77.2,100
59264,598559,590401,-9.79,-18.06,77.2,100
59285,598574,590412,-6.03,-11.07,77.1,100.0
59306,598566,590422,-3.29,-6.14,77.1,100
59327,598564,590414,-1.43,-2.68,77.1,100
59348,598601,590469,-0.49,-0.59,77.0,100
59369,598610,590475,0.68,1.87,77.0,100
59399,598609,590486,3.65,6.9,76.6,100
59421,598609,590493,6.73,11.94,76.3,100
59443,598611,590494,10.33,17.87,76.0,100
59468,598636,590528,13.58,23.49,75.8,100
59489,598632,590522,16.84,29.34,77.8,100
59511,598635,590540,19.91,34.64,79.4,100
59531,598655,590578,22.4,38.99,78.9,100
59553,598655,590587,24.32,42.17,78.5,100
59580,598656,590579,25.32,43.94,78.2,100
59602,598660,590586,25.09,43.71,77.9,100
59624,598666,590600,24.37,42.47,79.2,100
59646,598673,590595,23.41,40.91,80.1,100
59668,598655,590578,22.45,39.14,80.7,100
59691,598646,590563,21.29,37.16,81.0,100
59712,598380,590099,22.58,39.58,80.0,100
59733,598370,590066,22.0,38.85,79.0,100
59754,598379,590086,20.59,36.6,78.0,100
59785,598372,590092,18.75,33.39,77.2,100.0
59807,598442,590207,15.27,27.45,76.8,100
59828,598445,590204,11.85,21.59,76.8,100
59850,598450,590212,7.83,14.53,76.8,100
59872,598441,590210,3.09,5.86,76.9,100
59895,598450,590220,-2.44,-4.13,76.9,100
59916,598472,590250,-9.0,-15.75,76.9,100
59937,598458,590255,-15.87,-28.22,77.1,100
59959,598463,590234,-23.18,-40.94,77.3,100
59981,598450,590234,-29.63,-52.31,77.4,100
60005,598429,590192,-34.43,-60.69,77.3,100.0
60027,598429,590184,-36.64,-64.57,77.2,100
60049,598426,590193,-35.1,-61.99,77.2,100
60070,598436,590190,-31.11,-54.76,77.1,100
60093,598458,590243,-26.39,-46.56,77.1,100
60115,598473,590258,-21.99,-38.71,77.0,100
60136,598454,590246,-17.27,-30.38,77.0,100.0
60168,598497,590351,-14.23,-25.19,77.0,100
60190,598465,590270,-11.15,-19.56,77.0,100
60211,598511,590340,-8.55,-14.79,77.0,100
60233,598510,590345,-6.67,-11.5,77.0,99.9
60254,598508,590344,-5.14,-8.85,77.0,99.8
60276,598537,590388,-4.12,-6.89,76.9,99.9
60298,598541,590392,-2.84,-4.51,76.9,99.9
60319,598544,590385,-1.8,-2.43,76.9,100.0
60340,598532,590391,0.63,1.75,76.9,100.0
60363,598538,590394,3.09,6.24,76.9,100
60385,598530,590387,5.82,11.19,76.9,100
60406,598530,590382,8.07,15.74,76.9,100
60427,598518,590382,10.16,19.4,76.9,100
60448,598575,590463,11.23,21.45,76.9,100
60478,598573,590465,12.33,22.98,76.9,100
60500,598573,590449,13.23,24.13,76.9,100
60521,598563,590451,13.96,24.91,76.9,100
60544,598321,590028,16.89,29.56,76.9,100.0
60565,598324,590032,17.69,30.95,76.7,100
60586,598330,590045,17.27,30.14,76.6,100
60607,598338,590036,16.11,28.42,76.4,100
60628,598437,590210,13.43,24.12,76.5,100
60649,598406,590191,11.34,20.35,76.6,100
60679,598419,590207,8.68,15.68,76.9,100
60701,598422,590214,5.47,10.02,77.3,100
60723,598503,590343,1.17,2.66,77.6,99.9
60745,598498,590336,-2.95,-4.83,78.1,99.9
60766,598497,590345,-7.72,-13.58,78.5,100.0
60787,598504,590320,-13.0,-22.76,79.0,99.9
60808,598488,590319,-18.04,-31.84,79.4,100.0
60829,598462,590273,-21.53,-38.05,79.5,100
60850,598456,590268,-22.5,-40.11,79.8,100
60880,598456,590268,-19.95,-35.81,80.1,100
60902,598467,590286,-15.38,-27.84,80.3,100
60923,598576,590439,-11.7,-20.9,80.4,100.0
60945,598557,590457,-6.87,-12.67,81.0,100
60966,598558,590445,-2.85,-5.51,81.5,99.9
60987,598556,590453,0.7,0.38,81.4,99.9
61008,598596,590502,3.18,4.57,81.8,99.9
61029,598590,590503,6.45,9.91,81.6,100.0
61059,598589,590509,7.81,12.19,81.1,99.9
61081,598589,590513,8.25,12.96,78.2,99.9
61106,598651,590603,7.71,12.28,75.9,100.0
61129,598652,590618,7.71,12.44,76.5,99.9
61150,598659,590616,8.84,14.66,77.0,99.9
61171,598653,590620,10.68,17.95,77.4,100.0
61192,598689,590695,12.5,21.11,77.7,100.0
61213,598691,590696,13.97,23.78,78.4,99.9
61234,598691,590717,14.86,25.43,78.9,99.9
61265,598691,590695,14.95,26.23,79.4,99.9
61289,598720,590737,14.41,25.66,79.7,100.0
61311,598718,590732,14.51,25.9,80.0,99.9
61333,598706,590724,14.67,26.09,80.4,99.8
61354,598690,590714,14.88,26.29,80.6,99.7
61375,598428,590222,17.41,31.21,80.2,100.0
61396,598687,590688,15.55,27.97,80.0,99.9
61417,598421,590215,16.82,30.33,79.6,100.0
61438,598416,590218,16.39,29.76,79.2,100.0
61468,598536,590418,13.81,25.48,79.2,99.9
61491,598532,590415,10.44,19.84,79.1,100
61515,598539,590417,7.21,14.3,79.1,100
61537,598528,590413,3.63,7.55,79.3,100.0
61558,598541,590428,-0.86,-0.69,79.4,100.0
61579,598592,590530,-6.7,-11.36,79.8,100.0
61600,598601,590537,-13.43,-23.24,80.0,100
61621,598609,590543,-20.2,-35.12,80.5,100.0
61651,598550,590444,-25.87,-45.16,80.8,100.0
61674,598561,590451,-30.51,-53.43,81.1,99.9
61695,598554,590448,-32.75,-57.67,81.3,99.9
61720,598562,590456,-32.61,-57.58,81.3,99.9
61742,598591,590549,-30.81,-55.02,81.7,100
61763,598606,590529,-27.19,-48.5,81.6,100
61784,598613,590561,-22.57,-40.6,81.5,100
61805,598616,590561,-18.12,-32.82,81.4,100
61826,598648,590620,-14.73,-26.83,81.3,100
61856,598642,590623,-11.55,-21.45,81.3,100
61878,598644,590618,-8.93,-16.82,81.7,100.0
61899,598659,590622,-7.09,-13.5,82.0,99.9
61925,598665,590649,-5.88,-11.46,82.3,100.0
61947,598675,590665,-3.84,-7.89,81.6,100
61968,598670,590664,-2.0,-4.48,80.3,100
61989,598675,590664,0.01,-0.51,78.9,100
62010,598702,590718,2.09,3.4,77.4,100.0
62031,598689,590716,4.09,6.99,76.5,100
62061,598694,590712,6.05,10.66,75.9,100
62083,598691,590706,7.58,13.34,75.7,100
62105,598700,590723,8.8,15.43,75.6,100
62130,598695,590720,9.59,16.77,75.4,100
62152,598702,590723,9.89,17.4,75.7,100
62173,598696,590719,10.18,17.7,76.4,100.0
62194,598703,590701,10.14,18.01,77.1,100
62215,598259,589977,14.69,25.67,77.1,99.9
62236,598240,589962,16.85,29.51,76.7,99.7
62267,598242,589967,17.61,31.02,76.3,99.5
62289,598354,590144,15.34,27.63,76.1,99.7
62310,598353,590168,13.05,23.84,76.0,99.7
62333,598350,590145,10.21,19.2,76.2,99.8
62355,598354,590162,6.57,12.89,76.8,99.9
62376,598360,590159,1.93,4.8,77.0,99.8
62397,598348,590137,-4.07,-5.73,77.6,99.7
62418,598339,590135,-11.13,-17.89,77.9,99.7
62448,598356,590161,-20.63,-33.97,78.5,99.7
62470,598214,589893,-28.71,-47.32,79.0,99.7
62491,598184,589875,-36.72,-60.85,79.4,99.7
62513,598180,589866,-43.2,-71.53,79.8,99.7
62535,598170,589848,-45.16,-74.47,80.0,99.7
62558,598160,589829,-41.85,-68.6,80.2,99.6
62579,598070,589718,-34.19,-56.39,80.4,99.7
62600,598065,589708,-26.74,-44.42,80.5,99.7
62621,598062,589717,-20.8,-35.16,80.6,99.8
62652,597988,589626,-16.44,-28.67,80.7,99.8
62674,598002,589633,-13.85,-24.75,80.8,100.0
62695,597998,589633,-12.95,-23.53,80.9,100.0
62717,598007,589632,-13.3,-23.92,80.9,99.9
62739,598004,589636,-14.46,-25.51,80.9,99.8
62762,598047,589701,-16.45,-28.28,81.0,99.7
62783,598060,589715,-17.33,-28.63,80.6,99.5
62804,598049,589725,-17.03,-27.17,80.2,99.5
62834,598064,589728,-16.09,-24.27,80.0,99.4
62856,598189,589940,-16.38,-23.3,79.8,99.4
62877,598205,589949,-16.17,-21.52,79.6,99.2
62899,598194,589946,-14.16,-17.47,79.5,99.2
62922,598200,589959,-10.82,-11.69,79.4,99.2
62945,598481,590410,-10.75,-11.51,79.3,99.0
62967,598503,590418,-6.44,-4.67,79.6,98.9
62988,598501,590425,-0.34,4.4,79.9,98.9
63011,598499,590422,7.0,15.3,80.2,99.0
63032,598255,589975,17.41,32.0,79.9,99.1
63053,598242,589960,27.09,47.04,79.7,99.4
63074,598236,589953,36.23,61.22,79.4,99.4
63095,598225,589945,44.91,74.53,78.9,99.4
63116,598246,590006,52.82,86.26,78.5,99.3
63148,598245,590018,60.38,97.13,78.2,99.1
63170,598248,590030,66.0,105.19,78.1,99.0
63191,598258,590031,70.23,110.97,78.1,99.0
63213,598332,590138,71.24,111.7,78.1,99.0
63234,598322,590130,69.55,107.78,78.0,99.0
63255,598309,590103,63.3,96.71,78.0,99.0
63276,598298,590098,52.18,77.69,78.0,98.9
63297,598290,590100,39.76,57.01,78.0,98.9
63318,598195,589942,28.28,38.41,78.0,98.9
63350,598198,589955,18.73,23.61,78.2,98.8
63374,598195,589966,12.55,14.83,78.3,98.8
63396,598370,590259,7.21,7.78,78.4,98.9
63418,598362,590254,4.52,4.83,78.8,98.9
63440,598380,590270,2.74,3.08,78.4,99.0
63461,598385,590282,1.64,1.82,78.1,99.0
63482,598390,590295,0.76,0.44,77.9,99.0
63503,598491,590460,-1.87,-3.48,77.7,99.0
63524,598493,590462,-3.97,-6.26,77.5,99.0
63549,598493,590470,-6.47,-9.48,77.4,99.0
63572,598490,590472,-8.55,-11.93,77.3,99.0
63593,598658,590723,-11.3,-15.22,77.2,99.0
63614,598646,590731,-10.23,-12.51,77.2,98.8
63636,598652,590728,-8.55,-9.04,77.1,98.8
63657,598661,590731,-3.29,0.18,76.7,98.9
63678,598747,590878,1.68,8.41,76.4,98.9
63699,598738,590882,5.9,14.86,76.1,98.9
63720,598743,590883,9.17,19.69,75.9,98.9
63750,598738,590888,12.12,24.01,77.8,99.0
63772,598593,590582,16.24,30.77,79.2,99.1
63793,598576,590575,19.47,35.58,80.0,99.2
63815,598570,590554,21.49,38.4,80.7,99.2
63836,598558,590538,22.76,39.98,81.2,99.2
63857,598470,590415,24.47,42.02,81.4,99.2
63878,598468,590408,25.48,43.01,81.6,99.2
63899,598461,590420,24.85,41.08,81.9,99.1
63920,598459,590414,22.01,35.65,82.2,99.1
63952,598591,590625,15.77,24.78,82.4,99.1
63974,598595,590630,8.65,12.13,82.6,99.0
63995,598591,590637,0.33,-2.31,82.8,99.1
64017,598598,590637,-9.33,-18.96,83.1,99.1
64038,598586,590613,-19.19,-35.91,83.4,99.1
64059,598587,590607,-28.59,-51.82,83.8,99.1
64080,598573,590599,-35.9,-64.03,84.2,99.0
64101,598573,590595,-41.56,-72.69,84.5,99.1
64122,598573,590599,-44.61,-76.6,84.8,99.1
64152,598558,590579,-45.13,-76.38,84.7,99.1
64176,598558,590574,-43.37,-72.49,84.7,99.0
64198,598559,590591,-39.7,-65.92,84.6,99.1
64220,598625,590710,-35.63,-59.01,84.9,99.1
64241,598624,590699,-31.19,-51.6,87.9,99.1
64262,598627,590717,-27.42,-45.61,90.3,99.2
64283,598636,590707,-25.19,-41.72,92.2,99.1
64304,598643,590741,-23.91,-39.77,93.8,99.2
64334,598647,590756,-23.09,-38.45,95.0,99.2
64356,598644,590755,-22.55,-37.54,96.0,99.2
64378,598643,590759,-21.79,-35.94,96.8,99.2
64400,598660,590756,-20.71,-33.41,97.5,99.2
64421,598647,590741,-18.95,-29.82,98.0,99.0
64442,598640,590751,-14.6,-22.36,97.1,98.9
64463,598640,590753,-10.93,-16.01,98.8,98.9
64484,598445,590412,-5.2,-6.1,99.5,98.9
64505,598424,590383,-1.68,0.06,99.8,99.0
64535,598421,590360,0.72,4.3,100.1,99.1
64557,598409,590321,2.19,7.04,98.8,99.1
64580,598382,590303,2.98,8.09,97.8,99.1
64602,598305,590193,3.7,8.92,97.0,99.0
64623,598311,590188,3.19,7.92,96.3,98.9
64645,598324,590199,1.47,4.67,95.8,98.9
64666,598312,590238,-1.23,-0.97,95.7,98.9
64687,598315,590199,-4.41,-6.54,95.3,98.8
64708,598321,590228,-8.9,-14.77,95.3,98.9
64738,598323,590233,-14.25,-24.21,95.3,99.0
64760,598322,590222,-20.06,-34.31,95.3,99.0
64782,598322,590244,-25.49,-44.06,95.3,99.1
64804,598330,590238,-29.25,-50.76,95.3,99.2
64825,598323,590229,-29.78,-51.88,95.3,99.2
64846,598314,590234,-29.13,-50.91,95.3,99.2
64867,598380,590335,-28.04,-48.67,95.3,99.1
64888,598373,590341,-25.7,-44.18,95.2,99.1
64918,598379,590338,-22.62,-38.43,95.2,99.0
64940,598398,590342,-18.54,-30.77,95.2,99.0
64962,598367,590353,-13.43,-22.38,95.2,99.1
64985,598378,590339,-8.78,-14.25,95.2,99.1
65007,598381,590349,-4.32,-6.63,95.2,99.2
65028,598379,590355,0.35,1.04,95.2,99.2
65049,598442,590477,4.07,7.11,95.2,99.2
65071,598447,590473,7.33,12.6,95.2,99.3
65092,598438,590470,11.01,18.72,95.5,99.4
65113,598444,590463,14.51,24.75,95.8,99.4
65134,598472,590549,17.39,29.34,96.0,99.5
65155,598471,590516,18.24,31.19,96.1,99.7
65187,598475,590541,20.18,34.53,96.9,99.5
65209,598475,590539,21.56,36.89,97.5,99.5
65230,598366,590375,23.76,40.5,96.5,99.4
65252,598357,590365,26.5,45.39,95.7,99.2
65273,598346,590346,28.79,49.51,94.7,99.3
65294,598338,590322,30.51,52.69,93.9,99.5
65315,598330,590311,31.84,55.08,93.3,99.6
65336,598179,590064,33.95,58.61,92.6,99.6
65357,598190,590081,34.23,58.93,92.0,99.6
65388,598185,590075,33.25,57.2,91.5,99.6
65410,598248,590182,29.94,51.73,91.4,99.7
65432,598243,590164,25.7,44.92,91.3,99.7
65454,598256,590177,20.65,36.67,91.2,99.7
65476,598246,590174,15.26,27.54,91.1,99.7
65498,598244,590173,9.11,17.11,90.8,99.7
65520,598319,590291,1.99,4.99,90.6,99.7
65541,598315,590295,-3.7,-5.02,90.4,99.6
65563,598309,590290,-8.0,-12.94,90.5,99.6
65586,598291,590252,-11.43,-19.23,90.3,99.5
65610,598296,590271,-14.6,-25.36,90.4,99.5
65633,598319,590284,-16.29,-28.59,90.8,99.4
65654,598305,590297,-15.86,-28.73,91.1,99.5
65675,598321,590308,-13.34,-25.0,91.1,99.5
65696,598390,590432,-10.14,-20.23,91.3,99.5
65717,598390,590431,-6.99,-15.33,91.5,99.6
65738,598389,590427,-3.62,-9.79,91.7,99.6
65769,598390,590448,-0.41,-4.73,91.8,99.7
65791,598459,590565,1.88,-0.72,91.9,99.7
65815,598468,590564,3.38,2.32,92.3,99.8
65838,598462,590570,5.34,5.64,92.6,99.9
65859,598457,590576,6.81,8.2,92.8,99.9
65880,598445,590545,8.16,10.85,91.9,99.8
65902,598433,590543,9.42,13.14,92.3,99.8
65923,598447,590521,10.97,16.53,92.6,99.9
65944,598443,590550,13.0,20.25,92.5,99.8
65974,598439,590568,15.14,24.08,92.5,99.8
65996,598450,590571,17.53,28.8,92.4,99.6
66021,598445,590587,19.17,31.76,92.4,99.6
66043,598438,590576,19.83,33.22,92.4,99.6
66065,598301,590329,21.98,37.36,91.3,99.6
66086,598281,590308,22.1,37.57,90.2,99.6
66107,598291,590291,20.86,35.86,89.3,99.7
66128,598271,590286,18.59,31.9,88.8,99.6
66149,598242,590264,15.67,26.86,88.5,99.5
66179,598245,590258,11.5,20.05,88.2,99.5
66201,598261,590280,7.24,13.17,88.2,99.6
66226,598267,590283,2.93,6.24,88.2,99.6
66249,598271,590301,-1.48,-0.78,88.2,99.7
66270,598269,590311,-6.1,-8.23,88.2,99.7
66291,598267,590311,-11.05,-16.47,88.5,99.7
66312,598271,590326,-16.27,-25.59,88.7,99.6
66333,598314,590405,-21.82,-35.35,88.9,99.7
66363,598325,590399,-26.58,-43.4,89.0,99.6
66385,598318,590406,-29.07,-48.08,89.1,99.6
66409,598320,590399,-29.34,-48.5,89.2,99.5
66431,598364,590490,-28.58,-47.29,89.3,99.5
66452,598363,590495,-27.08,-44.77,89.6,99.6
66473,598363,590477,-24.58,-40.3,89.9,99.5
66494,598371,590486,-21.52,-35.16,90.1,99.5
66515,598419,590549,-18.52,-29.87,90.2,99.4
66536,598425,590561,-15.16,-24.2,91.5,99.5
66567,598429,590573,-11.76,-18.41,92.6,99.5
66589,598428,590577,-8.11,-12.45,93.4,99.5
66610,598475,590680,-4.88,-7.59,94.1,99.6
66636,598478,590670,-1.61,-2.37,94.6,99.5
66658,598478,590682,1.52,2.28,95.1,99.4
66679,598479,590690,4.17,6.1,95.4,99.5
66700,598482,590676,6.47,9.68,95.7,99.6
66721,598533,590759,9.01,13.65,95.9,99.5
66742,598529,590772,11.29,16.77,95.5,99.4
66772,598533,590771,13.28,19.58,95.1,99.3
66794,598504,590745,15.24,22.21,94.8,99.3
66818,598511,590746,16.75,24.48,93.3,99.3
66841,598514,590741,18.04,26.79,92.0,99.3
66863,598505,590747,18.56,28.14,90.7,99.3
66884,598508,590766,18.58,28.57,89.7,99.3
66905,598495,590747,18.38,28.54,88.9,99.1
66926,598496,590736,17.75,28.1,88.1,99.3
66952,598483,590725,16.89,26.85,87.3,99.2
66974,598263,590373,17.89,28.48,86.1,99.1
66995,598260,590358,17.39,27.91,84.7,99.2
67017,598266,590377,15.8,25.38,83.5,99.2
67039,598277,590371,13.11,21.75,82.6,99.4
67062,598268,590384,9.87,16.74,82.1,99.3
67083,598284,590417,5.92,10.5,81.9,99.2
67104,598291,590413,1.19,3.21,81.7,99.3
67125,598291,590415,-3.53,-4.21,81.8,99.2
67155,598326,590493,-8.9,-12.87,81.9,99.2
67177,598329,590490,-14.6,-21.89,82.2,99.3
67198,598326,590484,-20.3,-31.49,82.6,99.1
67220,598318,590482,-26.04,-41.24,82.8,99.2
67244,598270,590407,-31.13,-50.01,83.1,99.2
67267,598263,590409,-34.97,-56.74,83.4,99.2
67288,598269,590402,-36.79,-59.95,83.6,99.1
67309,598279,590423,-35.47,-57.98,83.8,99.1
67330,598280,590421,-31.99,-52.4,82.0,99.1
67360,598289,590466,-27.73,-45.65,80.6,99.1
67382,598292,590459,-23.38,-38.56,79.5,99.3
67404,598282,590460,-19.1,-31.52,78.6,99.2
67427,598324,590524,-15.59,-25.76,78.3,99.3
67449,598315,590518,-12.57,-20.69,78.0,99.3
67472,598322,590529,-9.88,-16.13,77.4,99.3
67493,598334,590529,-8.18,-13.05,76.9,99.2
67514,598328,590524,-6.83,-10.61,76.5,99.2
67544,598308,590518,-5.15,-8.04,76.2,99.2
67566,598303,590522,-3.33,-5.09,76.0,99.2
67587,598309,590517,-0.41,-0.19,75.4,99.0
67609,598346,590592,2.14,4.02,75.0,99.0
67632,598347,590592,4.67,8.39,74.6,99.0
67655,598348,590595,6.66,11.93,74.3,99.0
67677,598347,590590,8.6,15.44,74.1,99.0
67698,598345,590595,10.39,18.4,73.9,99.1
67719,598226,590405,13.12,22.65,74.3,99.1
67741,598232,590376,14.62,25.34,74.6,99.2
67762,598209,590367,15.16,26.05,74.7,99.2
67783,598192,590357,15.38,26.09,74.8,99.2
67804,598174,590318,15.35,26.19,75.0,99.2
67825,598184,590318,14.93,25.88,75.2,99.3
67855,598180,590325,14.45,25.08,75.3,99.2
67877,598188,590330,13.63,23.71,75.5,99.3
67898,598217,590400,12.17,20.61,75.6,99.2
67920,598217,590390,9.89,16.52,75.6,99.2
67941,598216,590409,6.4,10.1,75.9,99.2
67963,598230,590426,1.68,1.84,76.3,99.1
67984,598218,590384,-2.53,-5.28,76.6,99.0
68005,598209,590375,-6.26,-11.93,77.1,99.0
68026,598206,590369,-9.24,-17.09,77.5,99.1
68056,598216,590382,-10.72,-19.47,77.8,99.0
68078,598243,590440,-10.9,-19.88,78.0,99.0
68099,598238,590436,-9.73,-18.14,78.2,99.1
68122,598250,590444,-7.74,-14.87,78.3,99.1
68144,598244,590447,-5.17,-10.79,78.5,99.2
68165,598286,590524,-3.03,-7.0,79.0,98.9
68186,598286,590524,-0.75,-3.22,79.4,99.0
68207,598285,590532,1.24,-0.19,79.7,99.2
68228,598286,590528,2.81,2.26,80.0,99.1
68258,598301,590527,3.97,4.01,80.2,99.3
68280,598327,590600,4.68,4.71,80.4,99.3
68302,598327,590595,6.48,7.72,80.1,99.1
68324,598314,590600,8.09,10.31,79.5,99.1
68345,598346,590632,9.34,13.1,79.0,99.1
68366,598333,590636,10.98,16.07,78.6,99.1
68387,598324,590636,12.63,18.93,78.2,99.0
68408,598340,590637,13.77,21.4,78.0,99.0
68438,598331,590641,14.7,23.25,77.8,99.0
68460,598347,590659,15.14,24.45,77.6,99.0
68483,598342,590652,15.44,25.3,79.0,99.1
68506,598339,590652,15.51,25.61,80.1,99.0
68527,598085,590221,17.94,29.98,80.3,99.1
68548,598102,590215,18.55,31.76,80.4,99.3
68569,598078,590215,18.29,31.66,80.4,99.2
68590,598081,590218,17.04,30.31,80.3,99.3
68611,598082,590209,15.37,28.1,80.2,99.3
68641,598123,590284,12.66,23.89,80.4,99.3
68663,598128,590283,9.03,17.98,80.5,99.2
68686,598129,590273,5.22,11.55,80.9,99.2
68708,598122,590285,0.85,3.68,81.4,99.2
68729,598125,590296,-4.39,-5.83,81.8,99.3
68750,598122,590301,-10.62,-16.96,82.1,99.5
68771,598130,590305,-17.41,-28.88,82.3,99.6
68792,598119,590294,-23.9,-40.4,82.5,99.6
68822,598101,590261,-28.98,-49.45,82.7,99.6
68844,598085,590261,-31.69,-54.7,83.1,99.6
68867,598098,590262,-31.69,-54.66,83.6,99.6
68890,598104,590261,-29.13,-50.21,84.0,99.5
68911,598161,590359,-25.89,-44.71,84.4,99.5
68932,598157,590368,-21.92,-38.09,84.6,99.5
68953,598169,590378,-18.54,-32.02,85.3,99.4
68974,598171,590372,-15.61,-26.51,85.9,99.4
68995,598217,590456,-13.63,-22.5,86.9,99.3
69026,598223,590457,-11.81,-18.63,87.7,99.3
69048,598228,590471,-9.64,-14.61,88.4,99.3
69072,598220,590470,-7.4,-10.82,88.3,99.3
69094,598261,590531,-5.5,-7.75,88.3,99.4
69115,598251,590525,-3.01,-3.99,88.3,99.6
69136,598250,590530,-0.11,0.43,88.3,99.6
69157,598230,590491,3.53,6.12,88.3,99.5
69178,598261,590534,7.08,11.6,88.3,99.5
69199,598293,590579,11.27,18.26,87.8,99.7
69229,598289,590599,14.66,23.49,87.3,99.7
69252,598300,590610,17.18,27.5,87.0,99.6
69276,598307,590602,18.91,30.56,86.8,99.7
69298,598290,590584,20.33,32.93,86.6,99.6
69319,598264,590568,21.25,34.39,86.4,99.5
69340,598261,590560,21.15,34.63,86.0,99.5
69361,598250,590538,20.68,34.39,85.5,99.6
69382,598058,590194,21.81,36.8,84.8,99.5
69404,598057,590187,22.18,37.91,84.1,99.7
69434,598061,590187,20.99,36.1,83.5,99.7
69456,598082,590225,19.4,33.34,83.0,99.8
69477,598077,590233,17.97,30.58,82.6,99.7
69503,598086,590220,15.82,27.08,82.5,99.7
69525,598079,590220,12.85,22.23,82.5,99.7
69546,598111,590286,8.32,14.59,82.4,99.7
69566,598121,590286,2.84,5.51,82.4,99.7
69588,598117,590288,-3.26,-4.96,82.3,99.7
69615,598116,590287,-9.91,-16.3,82.3,99.7
69637,598112,590292,-16.22,-27.58,82.7,99.7
69658,598106,590249,-21.83,-37.46,83.1,99.6
69680,598091,590263,-25.67,-44.98,83.4,99.7
69703,598100,590260,-27.23,-48.11,83.6,99.7
69725,598160,590352,-26.59,-46.95,83.8,99.6
69746,598154,590360,-23.52,-41.79,83.9,99.6
69767,598174,590359,-19.92,-35.34,84.0,99.6
69788,598180,590357,-16.37,-28.91,83.5,99.6
69818,598183,590374,-13.1,-23.11,83.0,99.6
69840,598226,590457,-10.73,-18.94,82.6,99.6
69861,598236,590457,-8.46,-14.74,82.3,99.6
69885,598243,590484,-6.49,-11.46,82.1,99.7
69907,598293,590569,-5.11,-9.04,81.9,99.7
69930,598251,590482,-2.88,-5.17,81.7,99.7
69951,598296,590567,-0.37,-1.17,81.6,99.7
69972,598298,590573,2.43,3.42,81.5,99.6
69993,598288,590589,5.72,8.24,81.4,99.7
70024,598351,590677,8.22,11.98,80.9,99.6
70046,598355,590689,11.02,16.34,80.5,99.6
70067,598343,590681,13.44,20.19,80.2,99.6
70089,598366,590688,15.19,23.44,80.0,99.6
70111,598399,590748,16.36,25.96,79.8,99.6
70134,598401,590748,17.37,28.31,79.6,99.6
70155,598395,590738,18.29,30.56,79.5,99.6
70176,598383,590725,18.97,32.27,79.8,99.5
70207,598133,590276,23.13,40.23,79.6,99.7
70229,598127,590279,23.54,41.7,79.5,99.7
70251,598134,590280,23.33,42.08,79.2,99.8
70273,598127,590280,22.76,41.7,78.9,99.7
70294,598158,590309,21.25,39.81,78.9,99.9
70316,598158,590311,19.13,36.24,78.9,99.9
70338,598159,590323,16.15,30.72,78.9,99.8
70359,598165,590311,11.89,23.14,78.9,99.9
70380,598212,590413,6.06,12.35,79.1,99.8
70411,598220,590405,-1.12,-0.24,79.5,99.7
70433,598220,590406,-9.26,-14.65,79.8,99.7
70454,598216,590394,-17.77,-29.6,80.1,99.7
70476,598185,590334,-25.54,-43.08,80.3,99.7
70499,598191,590347,-31.68,-53.78,80.4,99.7
70522,598199,590350,-34.41,-58.77,80.8,99.6
70545,598186,590348,-32.82,-56.71,81.1,99.7
70566,598199,590370,-29.33,-51.31,81.3,99.8
70588,598201,590377,-25.47,-45.06,81.3,99.7
70610,598207,590380,-21.38,-38.35,81.2,99.8
70631,598205,590374,-17.35,-31.65,81.2,99.9
70652,598271,590465,-14.45,-26.42,81.2,99.8
70673,598262,590475,-11.53,-21.64,81.2,99.9
70694,598253,590480,-9.3,-17.97,81.1,99.9
70725,598267,590499,-8.11,-15.71,81.1,99.9
70747,598244,590449,-7.13,-13.5,81.1,99.8
70768,598246,590453,-5.13,-9.51,81.1,99.9
70790,598242,590444,-3.46,-5.87,81.1,99.8
70811,598246,590449,-1.53,-1.98,81.1,99.8
70832,598319,590573,-0.35,0.69,80.7,99.8
70853,598313,590563,1.39,4.18,80.3,99.8
70874,598318,590582,3.08,7.22,80.0,99.8
70895,598326,590583,4.71,10.34,80.3,99.8
70926,598248,590459,7.28,14.88,80.4,99.9
70948,598242,590453,9.04,18.12,81.0,99.8
70969,598239,590436,9.95,20.19,81.5,99.8
70991,598220,590408,10.38,21.24,81.6,99.8
71012,598226,590400,10.2,21.24,81.7,99.9
71033,598044,590083,11.95,24.19,81.4,99.9
71054,598031,590079,12.97,25.53,81.1,99.9
71075,598032,590089,13.57,26.04,80.7,99.7
71096,598036,590080,13.59,25.99,80.5,99.8
71127,598062,590116,12.2,23.81,80.4,99.9
71149,598053,590122,9.91,19.59,80.6,99.9
71170,598077,590125,6.06,13.05,80.7,99.9
71192,598074,590125,1.18,4.56,81.0,99.9
71213,598110,590197,-4.65,-5.78,81.2,99.9
71234,598107,590194,-10.45,-16.23,81.4,99.9
71255,598104,590199,-15.69,-25.8,81.6,99.9
71276,598114,590188,-20.64,-34.67,81.9,99.8
71307,598100,590151,-24.54,-41.65,82.2,99.7
71329,598095,590171,-27.13,-46.62,82.4,99.8
71351,598100,590165,-27.48,-47.41,82.6,99.8
71373,598113,590169,-25.4,-43.86,82.8,99.8
71394,598137,590221,-21.57,-37.69,82.9,99.8
71415,598132,590215,-17.05,-30.35,83.2,99.8
71436,598140,590215,-12.66,-22.92,83.2,99.7
71457,598129,590203,-8.39,-15.92,83.2,99.8
71478,598130,590212,-4.56,-9.59,83.3,99.8
71506,598153,590260,-1.68,-4.67,83.3,99.7
71535,598154,590250,1.14,0.15,83.3,99.7
71557,598147,590252,3.56,3.79,83.3,99.9
71578,598216,590351,4.78,5.72,83.3,100.0
71600,598217,590356,6.21,7.98,83.3,100
71621,598226,590373,8.62,12.15,83.3,100.0
71643,598227,590386,10.81,15.98,83.3,99.9
71664,598253,590426,12.23,18.59,83.3,99.9
71685,598259,590425,13.38,20.94,83.3,99.9
71714,598252,590433,14.44,23.01,83.3,99.9
71737,598259,590436,15.19,24.96,83.3,99.9
71759,598125,590170,17.45,29.77,83.8,99.9
71782,598104,590149,19.15,33.26,83.9,99.9
71803,598103,590153,20.56,36.18,84.1,99.9
71824,598088,590144,21.81,38.43,83.9,99.8
71845,598185,590272,21.5,38.39,84.0,99.9
71866,598190,590284,21.23,38.1,84.1,99.9
71896,598201,590287,20.41,37.15,84.2,100.0
71918,598190,590301,19.06,34.45,84.3,99.8
71939,598203,590309,16.38,29.84,84.3,99.8
71962,598317,590491,11.39,21.27,84.6,100.0
71984,598334,590505,6.11,11.98,84.8,99.8
72005,598348,590504,1.23,3.43,85.0,99.9
72026,598347,590510,-3.32,-4.83,85.1,100
72047,598345,590532,-6.84,-11.73,85.3,100
72068,598353,590514,-8.72,-15.26,85.3,100
72098,598353,590521,-8.72,-15.52,85.7,100
72120,598371,590519,-6.23,-11.34,85.9,100
72144,598430,590651,-3.2,-6.9,86.1,100
72167,598435,590659,0.72,-0.83,86.3,100
72188,598427,590644,4.49,5.06,86.4,100.0
72209,598488,590743,7.3,9.44,86.5,100.0
72230,598417,590641,11.01,14.94,86.6,100.0
72251,598486,590749,12.89,17.54,86.7,100.0
72272,598499,590747,14.11,19.44,87.0,100
72302,598489,590754,14.27,19.37,87.2,100
72324,598521,590783,13.04,17.92,87.4,100
72348,598513,590779,11.82,16.43,87.6,100.0
72370,598512,590770,10.94,15.57,90.4,100.0
72391,598511,590769,10.49,15.42,92.3,99.9
72412,598579,590888,9.58,14.53,91.5,100
72433,598579,590889,10.66,17.39,90.4,99.6
72454,598585,590897,9.99,17.2,92.3,99.5
72484,598552,590813,9.19,16.97,93.2,99.6
72506,598547,590807,8.1,15.53,93.6,99.6
72527,598547,590786,6.67,13.6,92.5,99.8
72549,598522,590764,5.67,11.79,91.4,99.7
72574,598505,590750,4.73,9.8,90.5,99.6
72596,598293,590362,5.64,11.52,89.3,99.7
72617,598285,590374,5.07,10.2,88.1,99.5
72638,598311,590376,3.41,7.72,87.2,99.8
72659,598295,590379,1.92,4.83,86.6,99.6
72686,598320,590429,-0.38,0.53,86.2,99.6
72708,598323,590425,-2.79,-3.84,85.9,99.7
72729,598331,590421,-6.21,-9.86,85.8,99.8
72751,598323,590428,-10.9,-18.35,85.8,99.8
72773,598346,590450,-16.81,-28.74,85.8,99.7
72796,598338,590444,-23.2,-39.73,85.8,99.7
72817,598350,590436,-29.95,-50.65,85.8,99.6
72838,598336,590429,-36.16,-60.74,86.0,99.6
72859,598337,590428,-41.55,-69.42,86.2,99.6
72890,598313,590397,-45.33,-75.54,86.6,99.6
72912,598314,590397,-46.36,-77.24,86.9,99.6
72933,598322,590398,-44.72,-74.32,87.2,99.5
72956,598339,590445,-41.21,-68.3,87.4,99.6
72978,598341,590436,-36.64,-60.28,87.6,99.6
73000,598322,590429,-31.78,-52.3,87.7,99.6
73021,598329,590445,-27.26,-45.01,87.8,99.7
73042,598336,590450,-23.31,-38.47,88.2,99.7
73072,598387,590547,-20.86,-34.52,88.2,99.7
73094,598391,590555,-17.81,-29.52,88.7,99.7
73115,598387,590548,-14.93,-24.62,89.2,99.8
73137,598438,590609,-12.87,-20.52,89.5,99.6
73158,598427,590597,-10.11,-15.29,89.8,99.6
73182,598426,590612,-7.34,-10.2,89.5,99.7
73205,598427,590608,-4.4,-4.69,89.2,99.7
73226,598521,590749,-2.2,-0.22,89.0,99.6
73248,598515,590739,0.58,5.2,88.9,99.5
73270,598515,590738,4.39,12.24,88.7,99.4
73291,598512,590730,7.96,18.66,88.6,99.4
73312,598500,590728,11.48,24.51,88.6,99.5
73333,598242,590261,17.6,34.91,88.0,99.8
73354,598244,590267,21.69,41.53,87.3,99.9
73384,598240,590273,24.97,46.19,86.7,99.8
73406,598326,590397,25.61,46.85,86.3,99.8
73427,598326,590403,26.1,46.89,85.9,99.8
73449,598330,590403,26.02,46.03,85.6,99.8
73470,598322,590394,25.56,44.48,85.4,99.7
73491,598322,590395,24.16,41.29,85.2,99.7
73512,598396,590500,20.71,34.97,85.1,99.6
73533,598408,590513,15.94,26.49,85.2,99.6
73554,598401,590522,9.79,15.32,85.3,99.6
73584,598401,590525,2.68,2.75,85.4,99.6
73607,598407,590498,-4.35,-9.05,85.5,99.6
73628,598402,590501,-9.87,-18.87,85.5,99.6
73650,598400,590506,-12.55,-24.02,85.6,99.6
73671,598396,590502,-11.55,-22.73,85.6,99.6
73692,598481,590634,-8.94,-18.56,85.6,99.6
73713,598477,590638,-5.25,-12.71,85.6,99.6
73734,598479,590643,-1.74,-7.15,85.6,99.6
73755,598475,590640,1.57,-1.79,85.7,99.6
73786,598541,590739,4.01,2.26,85.9,99.6
73808,598554,590737,6.01,5.95,86.1,99.6
73829,598546,590757,7.88,8.96,85.6,99.6
73851,598549,590746,9.21,11.5,85.1,99.6
73872,598551,590746,10.13,13.33,84.8,99.7
73893,598545,590750,10.94,14.88,84.5,99.7
73914,598545,590757,11.96,17.0,86.9,99.6
73935,598548,590758,13.29,19.88,88.6,99.6
73967,598597,590808,14.45,22.82,89.9,99.7
73989,598597,590819,16.44,26.84,91.0,99.6
74011,598589,590821,18.04,29.68,89.5,99.5
74033,598594,590813,18.79,31.27,87.8,99.4
74054,598380,590442,21.21,35.56,84.7,99.3
74075,598373,590406,21.45,36.47,83.7,99.6
74096,598358,590401,20.9,35.63,84.1,99.6
74117,598341,590386,19.26,33.05,84.5,99.6
74138,598329,590371,17.2,29.61,84.7,99.4
74165,598306,590341,14.9,25.59,84.9,99.3
74187,598326,590350,11.2,19.61,85.6,99.5
74211,598323,590354,7.33,13.03,86.1,99.6
74235,598329,590353,3.16,5.84,86.5,99.8
74257,598307,590313,-1.51,-2.43,86.9,99.8
74278,598309,590316,-7.38,-12.75,87.1,99.7
74299,598301,590296,-14.15,-24.12,87.6,99.8
74320,598303,590311,-21.43,-36.53,88.0,99.8
74350,598230,590193,-27.14,-46.28,88.3,99.9
74372,598225,590213,-32.07,-54.76,88.8,99.8
74396,598237,590204,-34.42,-58.06,89.3,99.7
74418,598234,590209,-34.38,-57.44,89.6,99.7
74439,598290,590307,-33.96,-56.33,89.8,99.7
74460,598290,590309,-31.95,-52.98,90.1,99.7
74481,598295,590308,-30.16,-50.1,90.2,99.7
74502,598292,590315,-27.96,-46.55,90.6,99.7
74524,598321,590322,-26.24,-43.27,91.0,99.6
74554,598306,590334,-24.37,-40.05,91.2,99.7
74576,598316,590334,-22.57,-36.49,91.5,99.6
74600,598303,590338,-20.53,-32.67,91.6,99.7
74623,598320,590343,-18.5,-28.5,91.8,99.6
74645,598324,590345,-16.09,-23.84,92.8,99.6
74666,598321,590342,-12.5,-17.65,93.6,99.7
74687,598310,590348,-7.88,-10.35,94.2,99.7
74708,598339,590373,-3.09,-2.45,94.7,99.5
74729,598334,590380,1.52,4.82,95.1,99.5
74759,598341,590372,5.37,11.13,95.5,99.4
74781,598344,590376,8.44,15.88,95.7,99.4
74806,598317,590342,11.23,19.98,95.9,99.6
74828,598319,590314,14.08,24.85,96.1,99.6
74849,598293,590300,16.12,27.99,94.8,99.7
74870,598292,590291,17.11,29.83,93.7,99.7
74891,598088,589926,19.82,34.56,92.4,99.8
74912,598093,589943,20.89,36.11,91.3,99.8
74940,598101,589942,21.12,36.39,90.2,99.8
74962,598096,589954,20.89,35.72,89.5,99.8
74984,598150,590030,19.08,32.5,89.3,99.8
75006,598154,590029,17.33,29.35,89.1,99.8
75031,598130,590011,15.42,25.39,88.9,99.7
75053,598142,590027,12.29,19.66,88.8,99.8
75074,598195,590107,7.8,11.71,88.7,99.8
75095,598201,590098,2.77,3.12,88.8,99.7
75116,598194,590103,-2.13,-5.56,89.0,99.8
75146,598194,590099,-7.13,-14.39,89.1,99.8
75168,598150,590037,-11.07,-21.22,89.2,99.9
75189,598151,590032,-13.95,-26.28,89.3,99.8
75211,598153,590036,-14.61,-27.38,89.3,99.8
75236,598148,590038,-12.92,-24.67,89.4,99.7
75258,598225,590158,-10.24,-19.93,89.4,99.7
75279,598229,590157,-6.71,-13.55,89.4,99.7
75300,598223,590162,-3.29,-7.68,89.5,99.7
75321,598232,590158,-0.28,-2.2,89.5,99.7
75349,598333,590338,1.34,0.74,89.5,99.7
75371,598347,590354,2.8,3.55,89.8,99.7
75392,598339,590369,4.26,5.99,90.0,99.7
75414,598355,590373,5.16,7.89,90.2,99.8
75436,598427,590493,5.12,8.3,88.8,99.8
75458,598429,590491,5.28,9.08,87.7,99.7
75479,598424,590503,6.65,11.43,86.8,99.7
75500,598436,590502,8.99,15.52,86.6,99.7
75531,598495,590603,11.71,20.26,86.4,99.7
75553,598487,590596,15.25,26.07,86.3,99.8
75575,598491,590600,19.94,34.05,86.7,99.6
75597,598479,590595,23.98,40.76,86.5,99.5
75619,598478,590583,27.43,46.62,86.1,99.4
75642,598235,590155,32.24,55.13,85.5,99.5
75664,598232,590143,35.74,61.49,85.1,99.7
75685,598241,590143,36.44,62.88,84.5,99.7
75706,598285,590243,35.65,61.21,84.3,99.6
75727,598289,590243,34.17,58.5,84.1,99.6
75748,598299,590262,31.3,53.52,83.9,99.6
75778,598294,590256,27.41,46.86,83.8,99.7
75800,598297,590265,22.45,38.24,83.7,99.6
75823,598384,590418,15.5,26.22,84.1,99.6
75847,598400,590430,7.34,12.63,84.2,99.8
75869,598399,590433,-1.06,-1.87,84.3,99.8
75890,598365,590373,-9.52,-16.56,84.3,99.7
75913,598386,590396,-17.86,-31.02,84.3,99.7
75935,598385,590412,-24.83,-43.35,84.6,99.7
75956,598388,590400,-28.82,-50.21,84.8,99.7
75977,598390,590409,-28.7,-49.85,85.3,99.7
75998,598460,590540,-26.53,-45.79,85.6,99.7
76019,598461,590539,-23.43,-39.93,85.9,99.7
76050,598468,590552,-20.12,-33.75,86.1,99.7
76072,598469,590540,-16.55,-27.47,86.3,99.7
76093,598519,590630,-13.51,-22.26,86.4,99.7
76115,598528,590636,-10.66,-17.38,86.8,99.7
76136,598529,590635,-8.4,-13.69,87.1,99.7
76157,598534,590646,-7.19,-11.83,87.3,99.8
76178,598558,590704,-6.69,-11.22,87.5,99.8
76199,598561,590707,-5.98,-9.93,87.6,99.7
76220,598567,590703,-4.6,-7.37,87.8,99.6
76251,598575,590719,-2.8,-4.17,87.9,99.7
76273,598587,590730,-0.79,-0.53,87.9,99.6
76294,598575,590727,2.43,4.86,88.0,99.6
76316,598569,590728,4.84,8.83,89.1,99.6
76337,598568,590720,6.52,11.44,89.8,99.7
76358,598319,590286,10.17,17.49,89.7,99.7
76379,598321,590257,12.02,20.85,89.4,99.8
76400,598287,590246,13.09,22.3,88.9,99.7
76421,598274,590217,12.94,22.09,88.5,99.7
76451,598163,590042,12.94,22.19,88.2,99.6
76473,598161,590047,11.44,19.68,88.0,99.5
76494,598166,590048,8.79,15.35,87.8,99.6
76516,598162,590053,4.99,8.76,87.6,99.6
76537,598141,590046,0.11,0.18,87.7,99.6
76558,598127,590007,-6.07,-10.21,87.8,99.6
76579,598130,589999,-13.25,-22.1,87.7,99.6
76600,598123,590006,-21.72,-36.5,87.5,99.6
76631,598086,589955,-30.67,-51.53,87.4,99.6
76653,598081,589950,-38.82,-65.37,87.3,99.6
76675,598084,589961,-45.41,-76.26,87.5,99.6
76697,598082,589946,-49.1,-81.62,87.9,99.6
76718,598082,589940,-50.32,-82.57,88.2,99.5
76739,598085,589961,-49.81,-80.91,88.8,99.5
76760,598086,589971,-47.82,-76.74,89.2,99.5
76781,598081,589971,-44.46,-70.82,89.5,99.5
76802,598074,589956,-40.19,-63.25,89.8,99.5
76833,598116,590021,-36.28,-56.61,90.0,99.5
76855,598094,590029,-31.7,-49.2,90.8,99.6
76877,598107,590029,-26.95,-41.29,91.4,99.5
76899,598109,590034,-22.24,-33.48,91.8,99.5
76920,598164,590096,-18.15,-26.41,92.2,99.4
76941,598151,590114,-13.76,-19.36,92.5,99.4
76963,598156,590091,-9.24,-11.76,92.8,99.4
76984,598138,590095,-4.34,-4.03,93.0,99.4
77014,598243,590238,-0.71,2.13,93.1,99.3
77036,598239,590244,3.53,9.17,93.3,99.3
77058,598232,590240,7.73,16.28,93.4,99.2
77081,598241,590250,11.93,23.1,93.4,99.3
77102,598291,590352,15.51,28.57,93.5,99.3
77123,598301,590339,19.93,35.88,93.5,99.2
77144,598287,590341,24.21,42.11,93.6,99.3
77165,598282,590338,27.8,47.05,93.6,99.3
77186,598081,589974,33.12,55.05,92.0,99.4
77216,598074,589959,36.71,60.23,90.5,99.4
77238,598059,589950,39.83,64.69,89.3,99.4
77259,598050,589935,42.16,67.95,88.1,99.4
77285,598057,589950,43.42,69.57,87.2,99.3
77307,598067,589950,43.57,69.71,86.6,99.4
77327,598045,589955,43.05,68.35,86.2,99.3
77349,598061,589971,40.7,64.15,85.9,99.3
77369,598071,589978,36.69,57.34,85.6,99.3
77391,598076,589978,31.51,48.56,85.4,99.3
77421,598080,589988,24.81,37.18,85.2,99.3
77443,598091,589994,16.62,23.52,85.1,99.3
77467,598108,590032,7.74,8.61,85.0,99.3
77490,598126,590043,-0.58,-5.09,84.9,99.3
77511,598111,590045,-6.25,-14.66,84.8,99.3
77532,598123,590049,-9.54,-19.88,84.7,99.3
77553,598119,590048,-10.41,-20.97,84.7,99.3
77574,598119,590059,-10.08,-20.29,84.9,99.3
77604,598125,590050,-8.81,-17.79,85.1,99.3
77626,598123,590058,-6.89,-14.76,85.2,99.2
77647,598173,590151,-5.29,-12.33,85.3,99.3
77672,598170,590147,-3.51,-9.78,85.4,99.3
77694,598172,590145,-1.47,-6.7,85.4,99.3
77716,598165,590150,0.83,-3.31,83.7,99.3
77737,598195,590182,2.52,-0.32,82.4,99.3
77758,598196,590199,3.72,1.84,81.7,99.3
77779,598197,590198,4.63,3.7,81.1,99.3
77806,598198,590202,5.27,5.24,80.7,99.3
77828,598202,590222,5.78,6.48,80.4,99.4
77849,598206,590226,6.29,7.87,80.1,99.4
77871,598200,590217,8.09,11.54,79.4,99.2
77893,598195,590220,9.84,15.12,78.9,99.2
77916,598199,590207,10.64,17.32,78.5,99.3
77937,598229,590273,10.69,17.88,78.2,99.2
77958,598229,590284,10.56,18.08,78.0,99.2
77979,598223,590275,10.22,17.88,77.7,99.2
78010,598093,590033,11.03,19.85,78.6,99.2
78032,598082,590021,11.02,20.23,79.1,99.2
78053,598074,590001,10.05,19.02,79.3,99.2
78076,598069,589991,8.64,17.18,79.4,99.3
78098,598047,589966,7.39,15.29,79.6,99.2
78121,597990,589875,6.57,14.01,79.4,99.2
78142,597988,589867,5.01,11.52,79.3,99.2
78164,597981,589884,3.03,7.65,79.5,99.1
78194,598015,589922,0.09,2.75,79.6,99.2
78216,598022,589927,-3.25,-2.96,79.9,99.2
78237,598021,589940,-7.4,-10.39,80.1,99.2
78259,598022,589932,-12.51,-19.34,80.5,99.2
78281,598028,589931,-17.91,-28.8,80.9,99.1
78304,597988,589876,-22.49,-37.06,81.4,99.2
78326,597986,589871,-26.48,-44.08,81.8,99.2
78347,597981,589865,-28.91,-48.16,82.1,99.3
78369,597974,589885,-29.71,-49.6,82.3,99.3
78391,597992,589907,-29.71,-49.33,82.5,99.3
78412,597992,589896,-28.75,-47.4,83.7,99.3
78433,597989,589894,-26.67,-43.72,84.6,99.3
78454,597985,589901,-23.65,-38.78,85.3,99.3
78475,598048,589989,-20.89,-34.28,85.9,99.2
78508,598049,589991,-18.3,-30.21,86.4,99.2
78530,598042,590012,-15.73,-26.43,86.7,99.3
78551,598044,590000,-13.7,-23.07,87.0,99.3
78573,598035,589998,-11.84,-19.9,87.3,99.3
78594,598031,589994,-8.89,-14.67,87.5,99.2
78615,598040,589997,-6.44,-9.88,87.6,98.9
78636,598049,590007,-3.79,-5.04,87.7,99.0
78657,598075,590050,-1.22,-0.37,87.8,99.1
78678,598053,590028,2.26,5.44,87.9,99.3
78711,598053,590041,5.32,10.18,87.5,99.5
78736,598051,590052,8.2,14.74,87.1,99.6
78759,598076,590100,10.37,18.29,86.8,99.6
78780,598076,590099,12.36,21.5,86.6,99.6
78803,598074,590106,13.72,23.79,86.4,99.6
78824,598074,590106,14.26,24.81,86.3,99.7
78845,597943,589864,16.29,28.52,85.5,99.7
78866,597935,589849,16.49,28.85,84.6,99.7
78887,597927,589851,16.59,28.83,83.9,99.7
78909,597921,589834,16.72,29.01,83.3,99.7
78932,597953,589895,16.14,28.21,82.9,99.7
78953,597959,589902,15.17,27.1,82.5,99.8
78974,597958,589897,13.73,25.29,82.2,99.7
78996,597963,589907,11.81,22.56,82.2,99.7
79017,597968,589915,9.41,18.64,82.2,99.6
79038,597964,589913,6.53,13.57,82.2,99.6
79059,597965,589923,2.73,6.55,82.2,99.6
79080,597968,589940,-1.61,-1.86,82.4,99.4
79111,597985,589970,-6.04,-10.26,82.6,99.5
79133,597982,589963,-9.36,-16.61,82.8,99.5
79154,597992,589963,-11.21,-19.96,82.9,99.6
79176,597976,589967,-10.56,-19.51,83.0,99.7
79197,597985,589966,-8.91,-16.77,83.0,99.7
79218,597999,589996,-6.92,-13.64,83.1,99.7
79239,597998,589994,-5.32,-10.91,83.1,99.7
79260,598000,589999,-3.7,-8.2,83.2,99.7
79281,598004,590003,-2.23,-5.59,83.4,99.7
79312,598026,590055,-1.2,-3.81,83.0,99.7
79334,598020,590051,-0.14,-1.79,82.6,99.8
79355,598029,590050,0.85,0.54,82.3,99.5
79378,598023,590058,2.12,2.67,82.1,99.7
79400,597981,590007,3.66,5.02,81.9,99.8
79421,597977,590004,5.7,8.29,84.2,99.6
79442,597966,589984,7.0,10.41,85.8,99.5
79463,597969,589987,7.79,11.86,86.9,99.5
79484,597858,589856,9.53,14.28,87.4,99.2
79516,597852,589848,10.46,15.68,87.6,99.0
79538,597851,589846,10.82,16.53,87.7,99.1
79559,597841,589835,10.8,16.64,87.6,98.9
79581,597753,589710,10.98,17.14,87.7,98.8
79602,597745,589708,10.07,16.04,87.8,98.8
79623,597744,589716,8.14,13.33,87.9,98.9
79644,597751,589699,4.95,9.23,88.0,99.3
79665,597575,589439,3.09,6.81,87.8,99.3
79695,597569,589421,-0.27,2.26,87.6,99.4
79717,597565,589414,-4.3,-3.25,87.5,99.6
79742,597564,589407,-8.51,-9.21,87.4,99.6
79764,597561,589402,-13.17,-15.74,87.8,99.6
79785,597588,589443,-17.8,-22.38,88.2,99.4
79806,597583,589428,-21.72,-28.17,88.4,99.1
79827,597577,589425,-24.75,-32.98,88.7,99.0
79848,597302,589010,-24.39,-33.13,88.6,99.5
79869,597303,588998,-25.57,-35.79,88.5,99.4
79899,597302,588998,-27.18,-39.48,88.7,99.3
79921,597308,589004,-28.47,-42.83,89.2,99.2
79947,596844,588397,-22.63,-36.99,85.3,98.0
79969,596828,588375,-22.11,-37.84,82.2,97.8
79990,596816,588346,-21.37,-37.81,79.9,98.0
80012,596795,588335,-19.9,-36.57,78.0,98.3
80033,596499,587958,-15.54,-31.36,76.5,97.6
80054,596503,587962,-14.34,-30.09,73.5,97.8
80086,596517,587973,-16.93,-33.89,71.0,98.7
80108,596503,587969,-22.24,-41.33,76.8,99.3
80130,596402,587859,-29.21,-51.16,81.4,99.5
80153,596396,587850,-38.44,-63.53,85.2,99.3
80174,596384,587845,-48.14,-76.17,88.1,99.2
80195,596392,587836,-57.14,-86.85,90.5,98.9
80216,596115,587461,-62.1,-91.49,92.4,99.0
80237,596092,587458,-66.14,-94.59,93.9,98.7
80258,596099,587441,-67.71,-94.05,95.1,98.3
80289,596083,587427,-66.0,-89.34,96.1,97.9
80311,595956,587295,-60.51,-80.13,96.9,98.0
80335,595965,587288,-55.05,-70.69,97.5,97.8
80357,595961,587282,-48.18,-59.56,98.0,97.7
80378,595952,587290,-39.86,-47.08,97.8,97.7
80399,595962,587291,-31.89,-35.35,97.6,97.6
80420,595950,587308,-25.48,-26.21,98.1,97.7
80441,595956,587319,-20.41,-19.15,98.4,97.6
80471,595967,587324,-16.99,-14.47,98.1,97.5
80493,596006,587373,-13.61,-9.96,97.8,97.3
80514,596002,587364,-9.97,-5.06,97.6,97.2
80536,595994,587364,-4.69,2.0,97.5,97.2
80562,595988,587362,2.54,11.79,97.3,97.2
80584,595760,587003,12.74,26.32,92.9,97.1
80605,595758,586996,22.31,39.58,89.3,97.3
80626,595765,586997,31.11,51.71,86.4,97.4
80647,595752,586988,40.25,63.95,84.1,97.5
80674,595612,586801,50.7,77.72,82.1,97.6
80696,595610,586775,59.69,89.54,80.3,97.7
80717,595604,586774,66.89,98.44,79.1,97.7
80739,595596,586769,72.05,103.9,78.1,97.6
80764,595121,586114,79.9,112.72,74.0,97.6
80786,595102,586082,82.93,115.0,70.5,97.5
80807,595084,586066,81.65,111.16,67.7,97.5
80827,595054,586021,77.24,103.18,65.7,97.4
