red_raw,red_final (Filtered),ir_raw,ir_final (Filtered)
10104,35.44,5719,94.3
10297,171.89,5771,127.92
10294,189.6,5782,132.96
10128,66.29,5657,38.85
10134,33.77,5648,5.88
10216,77.96,5681,19.33
10228,90.54,5686,24.43
10663,378.87,5941,195.31
10667,421.93,5979,247.27
10699,418.63,5989,246.16
12537,1619.69,7369,1154.03
12572,1807.88,7392,1299.9
15485,3663.28,9743,2809.28
15579,3882.79,9823,3004.66
17541,4930.59,11468,3907.2
17494,4745.42,11446,3788.85
18896,5241.81,12525,4165.39
18906,4930.31,12533,3913.4
20448,5473.61,13764,4348.2
20532,5204.12,13851,4148.56
24412,7308.66,16915,5810.52
24516,7289.48,16978,5779.21
24631,6746.26,17058,5336.98
595988,390649.38,589989,390444.06
596101,454083.44,590207,454268.31
598360,433165.34,594704,434939.06
598345,391311.19,594676,393325.12
596530,346526.22,591387,347438.12
596431,305944.22,591257,306481.59
594655,268716.59,588618,268533.69
594667,236679.48,588637,236335.92
595060,208908.19,589111,208607.83
595059,184288.42,589100,184017.53
595205,162638.59,589240,162393.88
595206,143465.44,589242,143248.8
595234,126551.96,589276,126364.66
595224,111608.94,589274,111450.1
595231,98434.27,589263,98283.93
595259,86830.59,589313,86709.88
595256,76580.63,589309,76476.88
595218,67512.8,589231,67395.15
595204,59523.88,589229,59420.79
595214,52496.9,589262,52421.63
595219,46301.55,589251,46228.88
595316,40900.26,589405,40872.78
595304,36081.24,589400,36072.11
595356,31858.59,589487,31878.33
595362,28111.35,589491,28135.32
595449,24854.54,589666,24936.79
595463,21946.8,589667,22027.96
595521,19401.93,589762,19500.91
595515,17120.06,589771,17225.26
595517,15102.4,589766,15195.51
595608,13381.41,589905,13495.87
595613,11822.31,589905,11929.18
595669,10469.9,590033,10614.36
595668,9245.27,590046,9396.4
595775,8228.9,590237,8425.43
595776,7279.28,590226,7462.55
595750,6408.45,590226,6590.43
595759,5654.59,590223,5812.76
595893,5077.91,590479,5298.85
595897,4506.84,590493,4731.65
596018,4064.28,590726,4346.41
596025,3614.53,590721,3879.15
595962,3153.88,590634,3375.61
595953,2765.8,590623,2956.63
595946,2429.99,590630,2606.43
595940,2136.39,590619,2290.95
595937,1880.14,590630,2025.59
595771,1545.23,590303,1567.78
595760,1323.22,590288,1310.32
595751,1149.64,590268,1121.53
595750,1008.23,590271,981.38
595747,885.55,590267,860.6
595744,777.93,590254,748.84
595654,624.62,590123,569.36
595657,535.39,590120,474.2
595521,376.27,589898,260.85
595520,303.83,589895,183.19
595440,206.13,589776,68.19
595442,165.55,589775,32.85
595434,135.96,589767,15.89
595396,91.52,589718,-22.76
595394,71.23,589721,-28.51
595361,37.96,589679,-55.84
595357,23.73,589679,-57.97
595265,-43.75,589486,-183.59
595248,-68.46,589478,-204.99
595231,-80.31,589438,-219.96
595239,-71.12,589458,-191.69
595243,-60.11,589471,-159.66
595243,-52.26,589486,-128.02
595241,-47.27,589504,-97.17
595243,-40.62,589505,-80.54
595247,-32.87,589539,-46.65
595259,-20.04,589539,-34.2
595252,-19.84,589531,-33.57
595312,22.34,589658,54.87
595317,34.37,589663,75.78
595402,91.69,589850,200.51
595410,103.74,589860,221.64
595444,120.9,589935,258.69
595443,114.3,589936,246.81
595439,100.26,589961,239.82
595438,87.62,589956,214.47
595351,18.47,589772,66.09
595336,-10.51,589765,18.53
595367,3.97,589809,34.69
595368,7.9,589821,43.86
595414,39.28,589907,100.38
595406,38.41,589909,107.42
595426,48.41,589912,102.17
595437,54.26,589948,116.44
595433,48.44,589952,112.89
595425,37.51,589939,93.69
595424,30.89,589944,84.34
595412,18.53,589939,71.53
595414,15.2,589937,60.92
595401,4.33,589908,33.65
595385,-9.54,589917,30.01
595405,1.24,589956,52.83
595408,5.83,589949,49.35
595423,16.6,590004,81.34
595421,16.59,590010,86.56
595405,4.42,589938,32.07
595377,-17.89,589930,10.27
595379,-20.63,589923,-0.78
595355,-35.7,589842,-58.05
595357,-35.14,589850,-62.12
595472,45.38,590045,73.43
595471,61.07,590053,106.61
595506,83.42,590090,130.86
595505,81.27,590109,138.67
595620,151.32,590296,254.8
595622,157.47,590303,267.18
596094,463.46,591171,831.99
596103,507.21,591190,916.27
596078,458.46,591152,834.39
596089,414.93,591151,742.68
596079,362.2,591149,655.64
596201,400.5,591351,714.33
596200,375.62,591349,667.37
596099,269.6,591176,482.79
596093,216.27,591186,402.34
596097,187.26,591192,352.18
596103,168.18,591192,309.81
595983,68.43,590960,116.88
595995,45.68,590970,65.35
596072,87.95,591068,112.88
596075,93.12,591071,117.31
596182,158.58,591248,227.61
596180,160.27,591241,231.4
595953,-5.64,590823,-68.59
595942,-54.18,590820,-140.09
595895,-93.5,590709,-220.91
595897,-94.13,590674,-246.1
595864,-108.52,590668,-235.65
595641,-253.09,590237,-503.26
595635,-272.02,590239,-526.58
595422,-397.17,589863,-741.04
595414,-400.45,589858,-735.64
595283,-455.6,589633,-823.6
595270,-439.73,589628,-779.47
595362,-336.63,589739,-627.85
595367,-278.96,589745,-532.7
595184,-364.13,589420,-682.56
595181,-356.75,589400,-676.01
595073,-397.49,589179,-766.02
595077,-371.41,589171,-729.28
594919,-439.87,588959,-801.21
594937,-407.75,588957,-752.87
594928,-371.31,588950,-681.86
594926,-332.19,588949,-607.13
594931,-290.88,588953,-534.35
594856,-306.45,588845,-543.63
594856,-284.41,588836,-506.13
594822,-277.78,588819,-465.43
594821,-253.35,588810,-421.94
594817,-228.49,588803,-380.02
594818,-202.26,588787,-348.18
594764,-214.96,588727,-351.2
594777,-191.25,588726,-322.97
594759,-181.23,588715,-296.0
594762,-161.43,588712,-266.2
594737,-159.62,588651,-277.31
594726,-153.07,588643,-262.08
594719,-143.22,588623,-249.61
594516,-265.24,588380,-388.9
594511,-276.85,588368,-399.15
594793,-66.55,588752,-109.47
594799,-4.13,588759,-22.82
594798,11.24,588777,12.97
594789,8.09,588765,12.81
594750,-19.63,588741,-4.52
594756,-20.92,588740,-9.11
594901,78.14,588993,160.82
594903,97.75,588994,190.49
594999,159.1,589129,272.72
594994,157.68,589136,275.06
594994,144.0,589144,257.8
594994,128.4,589072,183.16
594990,110.91,589068,146.3
595180,225.07,589292,275.47
595182,236.01,589296,287.29
595100,163.7,589113,142.78
595112,139.79,589123,101.2
595609,456.47,589747,502.3
595635,514.96,589786,586.76
596167,844.25,590373,953.57
596168,856.2,590382,971.08
596988,1338.87,591016,1320.24
597020,1368.51,591032,1307.14
597173,1363.28,591061,1212.93
597161,1238.75,591034,1068.67
597264,1172.17,591019,932.04
597259,1053.12,590996,803.57
597243,923.46,590962,680.54
597196,781.31,590801,483.77
597191,676.25,590783,381.4
596706,266.32,590027,-185.46
596693,132.17,590012,-322.17
597086,351.85,590430,-47.88
597105,390.02,590465,48.57
597427,583.41,590846,325.17
597421,578.62,590832,357.72
597908,856.31,591690,913.23
597901,849.01,591687,973.46
598478,1163.9,592862,1697.33
598484,1148.63,592898,1759.9
597879,640.47,592051,1056.78
597892,467.6,592018,768.81
597863,365.18,591987,610.7
597988,392.73,592474,847.26
598007,379.27,592502,853.88
598352,576.05,593187,1244.51
598347,573.43,593180,1232.71
598289,485.34,593132,1093.29
598275,412.79,593111,951.81
597473,-180.17,592047,119.69
597460,-322.52,592015,-120.83
597756,-131.77,592642,251.05
597757,-72.13,592627,313.07
597223,-410.51,591558,-417.4
597222,-461.44,591542,-576.24
597450,-281.72,592117,-180.39
597449,-213.53,592120,-63.77
597463,-168.93,592110,-35.83
597110,-381.1,591320,-557.62
597091,-414.94,591310,-648.22
596938,-491.36,591232,-668.72
596946,-463.6,591219,-626.09
596975,-397.99,591479,-387.51
596994,-335.13,591515,-270.63
597123,-204.17,591665,-117.46
597113,-160.82,591653,-77.17
596900,-279.75,591326,-280.67
596912,-277.87,591346,-294.56
597278,-7.55,592140,261.36
597301,76.45,592151,386.18
597293,85.63,592165,394.33
597126,-31.67,591938,210.27
597109,-69.92,591907,125.45
596757,-310.54,591317,-303.6
596761,-341.97,591321,-382.95
597055,-123.07,591928,38.06
597065,-51.01,591943,150.63
597194,58.25,592152,306.86
597202,86.12,592162,326.86
596951,-83.08,591734,16.14
596938,-127.34,591712,-77.98
596721,-273.74,591375,-321.91
596720,-288.06,591368,-360.66
596412,-474.65,590831,-701.41
596396,-492.16,590823,-733.1
596645,-287.36,591346,-327.1
596643,-213.04,591364,-185.45
596655,-168.28,591362,-135.53
596311,-374.44,590758,-518.12
596317,-390.53,590783,-553.59
596242,-412.04,590604,-636.21
596218,-398.79,590575,-622.71
596137,-416.24,590468,-638.74
596165,-366.6,590476,-583.43
596189,-307.03,590541,-476.54
596184,-269.51,590545,-406.74
596271,-178.74,590711,-243.07
596253,-152.98,590687,-197.65
596143,-207.58,590506,-291.37
596148,-200.39,590530,-274.13
596328,-60.53,590928,21.25
596336,-14.91,590947,106.44
596346,4.52,590949,120.17
596457,83.72,591140,241.99
596446,89.1,591147,256.89
596585,176.52,591439,435.42
596592,188.26,591443,446.15
596560,153.76,591376,366.09
596559,131.46,591383,319.74
596786,267.54,591740,521.46
596788,280.44,591755,538.08
596760,241.14,591669,438.96
596759,210.2,591676,381.65
596842,240.51,591774,401.06
596824,215.71,591774,372.02
596742,136.05,591568,194.66
596729,95.81,591556,125.58
596738,83.68,591546,90.96
596782,103.21,591653,146.64
596796,108.75,591654,148.83
596955,207.98,591955,339.44
596962,220.07,591960,362.0
596982,217.98,591987,355.25
596979,197.03,591976,316.13
597149,289.54,592326,515.23
597156,293.06,592321,518.3
596962,138.57,591861,165.62
596957,84.68,591873,71.21
597231,248.43,592337,353.88
597220,261.15,592329,389.56
597213,237.59,592323,361.53
597351,304.42,592580,497.0
597358,300.24,592600,502.44
597446,333.08,592711,536.1
597447,313.85,592724,508.01
597549,351.16,592897,574.49
597550,331.5,592901,545.31
597741,427.14,593250,726.84
597739,413.67,593275,727.79
597791,410.37,593333,705.57
597791,374.83,593352,653.16
597848,372.6,593411,624.52
597831,329.1,593415,567.29
597852,304.53,593383,483.43
597843,266.55,593355,402.71
597712,146.31,593074,159.31
597716,106.43,593109,108.24
597737,101.6,593117,91.69
597763,109.28,593107,73.02
597765,103.31,593106,61.48
597911,191.38,593397,249.32
597918,202.09,593394,273.37
597896,172.86,593367,238.14
597900,153.64,593377,215.88
598057,241.48,593726,426.97
598063,247.17,593728,445.26
597870,97.85,593302,125.47
597856,42.66,593276,17.07
597586,-156.59,592733,-377.11
597583,-195.4,592712,-458.3
597447,-280.17,592451,-615.68
597432,-287.87,592493,-574.86
597448,-254.73,592501,-510.69
597089,-466.51,591779,-937.47
597082,-484.98,591766,-974.17
597148,-404.19,591922,-796.11
597149,-349.08,591912,-690.85
597220,-257.99,592072,-498.41
597232,-205.24,592093,-393.88
597276,-145.09,592178,-277.16
597273,-119.7,592177,-225.06
597347,-53.38,592370,-63.05
597350,-30.21,592390,-3.62
597359,-15.83,592414,27.72
597356,-12.89,592404,26.54
597337,-23.84,592404,23.97
597395,14.46,592498,84.59
597399,25.51,592509,100.02
597401,27.5,592525,106.25
597403,27.01,592518,94.09
597279,-58.85,592258,-91.91
597264,-85.52,592216,-159.11
597074,-212.86,591866,-398.13
597077,-224.83,591890,-408.34
597139,-167.09,592011,-294.93
597123,-149.31,592015,-238.87
597268,-34.58,592338,12.8
597279,4.58,592342,77.58
597172,-57.99,592167,-30.51
597191,-56.05,592176,-49.01
597190,-51.46,592211,-25.91
597259,0.45,592346,72.94
597250,7.43,592358,99.66
597390,102.79,592634,283.75
597385,114.64,592626,300.56
597428,136.9,592723,344.7
597430,132.24,592732,332.71
597408,105.11,592661,253.86
597396,81.28,592660,211.95
597289,-3.58,592406,12.5
597254,-48.1,592355,-72.94
596720,-414.69,591287,-807.13
596709,-479.12,591283,-925.93
596583,-539.67,591060,-1027.64
596577,-513.28,591051,-972.38
596837,-288.26,591693,-444.21
596863,-189.91,591739,-243.11
596902,-122.97,591794,-135.11
597145,67.82,592251,211.04
597128,98.58,592234,268.64
597553,384.07,593138,868.97
597554,423.94,593186,978.52
598054,734.7,594196,1603.25
598059,753.99,594211,1634.73
597814,530.21,593776,1211.67
597802,421.2,593750,985.65
597669,268.7,593518,689.47
597664,204.31,593517,556.15
597443,22.14,593074,177.53
597437,-29.51,593057,56.04
597496,-0.24,593162,91.45
597504,12.47,593201,118.91
597522,26.74,593214,124.51
597604,83.28,593383,229.16
597613,96.5,593401,248.17
597551,49.94,593256,134.37
597546,30.64,593234,79.64
597473,-25.92,593061,-57.26
597469,-40.63,593044,-98.24
597564,23.02,593270,51.92
597572,42.44,593263,80.55
597768,175.65,593714,384.5
597781,202.99,593737,443.8
597987,331.41,594131,686.46
597985,334.28,594117,679.91
597979,302.76,594115,619.51
597789,141.39,593677,257.2
597775,79.49,593637,117.6
597430,-174.98,592926,-405.98
597423,-228.79,592924,-504.47
597761,4.56,593621,-17.41
597768,67.44,593629,111.72
597166,-327.69,592830,-403.16
597167,-398.47,592829,-499.0
597448,-193.43,593451,-62.22
597462,-116.21,593488,77.6
597565,-17.68,593713,257.54
597559,4.52,593697,270.15
597415,-87.24,593446,81.61
597425,-96.15,593445,26.67
597430,-86.93,593467,25.48
597023,-351.26,592627,-542.44
596989,-410.79,592542,-696.37
595939,-1097.82,590278,-2200.15
595912,-1195.69,590199,-2444.95
595926,-1109.85,590111,-2359.04
595887,-1020.75,590037,-2188.04
595634,-1082.49,589670,-2207.3
595639,-1003.21,589704,-2002.83
595975,-672.37,590386,-1323.18
595982,-527.81,590395,-1034.72
596657,7.38,591820,84.32
596677,154.58,591837,369.51
596596,123.93,591647,282.02
596542,69.39,591540,164.23
596483,10.13,591525,110.67
596506,9.87,591513,79.82
596497,2.93,591495,53.24
596258,-159.98,591045,-260.88
596263,-183.97,591067,-302.9
596585,42.3,591700,138.23
596579,91.44,591684,226.51
596112,-218.27,590862,-323.84
596123,-270.16,590911,-401.61
596754,164.43,592121,427.33
596772,271.75,592166,629.59
597833,989.89,594387,2122.2
597849,1097.27,594413,2335.09
598000,1133.21,594667,2362.21
598007,1051.22,594675,2174.88
597328,484.79,593243,980.14
597308,288.18,593198,567.15
597295,205.76,593152,384.61
597047,0.73,592707,6.79
597023,-66.91,592643,-131.76
596760,-255.31,592238,-428.01
596795,-257.43,592309,-418.4
597266,80.81,593192,213.76
597289,174.33,593213,368.48
597373,239.61,593276,418.61
597341,214.24,593220,358.15
597069,6.69,592712,-29.21
597117,-13.7,592796,-67.46
597252,73.16,592921,12.83
597237,78.75,592888,9.67
597234,71.42,592874,-1.36
597822,459.34,594257,926.92
597827,521.28,594283,1099.1
597335,161.62,593251,354.81
597334,56.98,593277,155.49
598244,638.48,595285,1444.06
598282,756.07,595340,1682.5
599113,1281.1,596918,2662.45
599139,1322.19,596965,2715.14
599585,1521.02,598046,3226.64
599572,1433.65,598029,3071.04
599015,915.6,596812,1953.31
599019,710.92,596785,1489.57
598865,495.88,596297,918.81
598843,385.13,596244,662.24
598816,306.65,596195,508.94
599209,525.62,597177,1088.53
599253,565.76,597276,1208.64
599851,930.63,598540,1987.61
599851,943.58,598538,2013.84
600074,1017.2,598723,1974.88
600086,957.81,598731,1803.56
599919,749.53,598194,1246.8
599909,627.22,598179,991.56
599522,283.05,597114,126.82
599495,154.62,597057,-139.36
598844,-328.96,595197,-1446.44
598830,-431.96,595146,-1686.68
598549,-610.46,594679,-1918.8
598579,-583.49,594717,-1789.41
598419,-635.14,594365,-1842.7
598397,-609.23,594350,-1710.52
598379,-563.37,594332,-1544.92
598060,-718.99,593726,-1780.81
598065,-693.97,593708,-1701.67
597816,-796.69,593201,-1879.31
597814,-756.53,593169,-1786.74
597642,-798.26,592845,-1830.6
597639,-743.34,592842,-1688.98
597480,-773.8,592526,-1723.46
597478,-717.4,592510,-1597.27
596927,-1013.51,591426,-2160.38
596911,-1013.0,591397,-2138.71
596669,-1090.19,590961,-2246.08
596665,-1020.15,590948,-2092.05
596804,-822.82,591256,-1669.35
596801,-705.86,591271,-1412.08
596803,-615.52,591272,-1227.57
596749,-577.19,591181,-1138.75
596738,-526.19,591187,-1016.3
596862,-385.45,591435,-732.75
596876,-308.2,591443,-594.26
596792,-319.28,591299,-606.22
596789,-297.08,591299,-557.99
596718,-314.22,591178,-580.18
596719,-291.27,591170,-542.14
596554,-372.04,590889,-675.94
596549,-364.2,590868,-666.58
596553,-328.75,590908,-581.0
596550,-294.1,590905,-512.46
596560,-253.82,590912,-447.25
596708,-122.65,591242,-170.95
596715,-74.64,591258,-76.45
596799,0.31,591440,76.26
596805,23.1,591443,110.18
596892,85.42,591596,212.36
596882,87.15,591589,215.4
596819,37.81,591482,125.91
596828,28.3,591490,98.17
596790,-2.01,591420,35.83
596782,-14.86,591414,13.14
596634,-116.46,591133,-182.86
596631,-134.15,591122,-224.03
596492,-220.82,590855,-395.19
596489,-225.98,590851,-407.44
596494,-204.76,590869,-363.95
596571,-130.32,591018,-221.99
596578,-95.92,591032,-158.22
596601,-63.71,591099,-83.73
596606,-46.88,591092,-62.68
596653,-7.07,591185,10.51
596654,4.26,591185,27.94
596661,11.45,591192,34.69
596663,13.64,591193,34.1
596712,46.0,591299,102.42
596721,56.3,591296,108.88
596783,95.86,591448,203.64
596786,99.73,591453,213.58
596868,147.47,591596,294.25
596850,134.9,591599,291.7
596864,129.82,591592,261.67
596938,167.34,591698,303.37
596948,169.31,591707,294.29
596783,44.44,591342,21.41
596774,3.26,591331,-56.28
596647,-92.81,591124,-210.34
596640,-113.78,591125,-230.56
596784,-12.53,591417,-19.62
596777,9.24,591428,42.36
596868,75.17,591598,168.78
596873,88.78,591590,180.82
596819,48.29,591526,125.5
596825,38.11,591533,105.66
596672,-70.63,591226,-114.91
596657,-102.04,591217,-166.65
596658,-100.64,591192,-182.38
596627,-112.71,591129,-213.32
596636,-100.12,591138,-197.0
596666,-68.34,591214,-125.09
596663,-56.54,591223,-90.42
596667,-46.18,591225,-72.72
596664,-41.67,591212,-70.87
596688,-20.88,591269,-26.03
596692,-11.18,591278,-6.58
596748,29.88,591387,72.24
596758,44.39,591383,83.22
596772,53.65,591422,105.22
596779,56.2,591428,105.92
596786,56.81,591446,109.23
596778,46.74,591460,110.28
596789,47.71,591460,101.26
596566,-106.2,591035,-195.68
596566,-135.91,591033,-255.01
596649,-75.99,591196,-138.62
596656,-49.84,591198,-96.35
596677,-24.92,591248,-43.9
596681,-13.89,591242,-31.05
596633,-42.21,591147,-89.17
596632,-46.49,591150,-94.25
596622,-50.36,591147,-89.58
596623,-46.4,591155,-75.49
596630,-36.73,591171,-54.75
596628,-32.57,591167,-47.62
596634,-24.71,591165,-43.2
596617,-32.13,591184,-25.64
596629,-23.19,591179,-22.42
596549,-72.83,591026,-122.68
596532,-90.57,591009,-148.92
596439,-149.95,590825,-266.75
596439,-152.19,590819,-277.81
596506,-94.83,590943,-173.66
596508,-71.02,590940,-134.84
596527,-46.31,590966,-96.21
596512,-46.24,590968,-77.01
596471,-69.97,590884,-122.23
596491,-56.53,590894,-116.5
596522,-27.58,590986,-43.3
596528,-13.89,590994,-15.89
596540,-1.2,591029,15.84
596545,5.4,591028,21.83
596534,-0.75,591022,17.41
596532,-3.61,591000,-0.02
596532,-4.01,590991,-10.43
596358,-120.89,590652,-240.35
596350,-145.4,590670,-265.63
596458,-66.57,590851,-127.67
596464,-37.15,590865,-72.81
596501,-1.72,590936,-5.14
596498,5.28,590928,6.88
596514,17.35,590936,14.7
596519,22.31,590940,18.14
596577,60.73,591042,86.09
596561,54.43,591042,95.95
596613,83.29,591167,174.44
596625,91.54,591164,177.38
596623,84.57,591167,165.17
596656,97.84,591215,180.41
596662,96.94,591219,171.69
596598,45.47,591096,72.21
596591,24.03,591084,33.09
596559,-4.99,590993,-40.83
596566,-7.11,591006,-47.2
596684,72.41,591238,111.34
596690,90.25,591251,150.56
596739,120.13,591310,187.35
596722,105.97,591296,171.34
596710,85.37,591248,120.52
596695,62.86,591240,92.21
596693,50.62,591256,88.07
596705,51.28,591260,82.26
596702,45.12,591247,65.15
596663,13.53,591172,4.87
596668,7.8,591167,-14.08
596649,-7.07,591159,-23.06
596653,-7.54,591145,-32.77
596433,-155.07,590716,-321.23
596428,-182.38,590724,-361.13
596469,-146.2,590799,-290.15
596469,-124.74,590801,-246.46
596538,-62.37,590933,-125.85
596550,-33.4,590941,-79.53
596530,-36.77,590929,-69.23
596543,-25.73,590920,-66.91
596516,-38.97,590920,-60.63
596548,-17.51,590959,-27.71
596543,-14.0,590967,-11.67
596541,-13.28,590942,-23.5
596536,-15.35,590949,-19.81
596542,-10.55,590968,-4.43
596555,0.26,590967,-0.88
596554,2.3,590958,-5.98
596529,-14.2,590963,-3.41
596343,-142.29,590608,-241.44
596335,-167.85,590590,-292.9
596382,-128.44,590669,-227.87
596384,-106.36,590658,-199.73
596484,-24.55,590852,-45.2
596480,-4.66,590862,4.14
596489,6.83,590871,22.24
596446,-19.8,590796,-25.53
596447,-24.17,590796,-35.41
596431,-34.05,590769,-53.12
596428,-35.59,590777,-47.7
596468,-6.1,590876,24.36
596477,7.88,590885,46.47
596487,17.49,590884,47.37
596464,2.88,590878,39.62
596479,9.08,590917,60.55
596489,16.58,590926,66.73
596286,-119.58,590527,-205.88
596282,-146.35,590525,-258.25
596368,-82.79,590654,-162.76
596367,-60.52,590663,-119.02
596426,-10.1,590778,-20.55
596415,-4.0,590803,22.72
596425,4.62,590795,26.24
596355,-40.72,590674,-56.46
596366,-41.18,590673,-73.13
596383,-26.46,590722,-38.23
596384,-19.83,590723,-25.52
596397,-7.71,590774,14.14
596406,2.05,590772,21.6
596411,7.66,590807,45.23
596417,12.43,590801,43.29
596310,-59.44,590605,-92.76
596297,-81.26,590577,-137.98
596203,-143.15,590394,-260.81
596206,-144.58,590393,-270.29
596215,-126.64,590402,-243.76
596273,-72.42,590558,-111.47
596291,-40.56,590550,-74.26
596308,-17.71,590577,-40.5
596298,-17.22,590581,-25.92
596285,-24.33,590555,-37.57
596279,-28.13,590556,-36.68
596310,-5.85,590603,-1.7
596306,-2.44,590598,3.88
596323,10.06,590621,20.42
596317,8.3,590617,20.18
596330,15.9,590646,37.9
596327,14.51,590643,37.1
596140,-113.01,590285,-207.23
596138,-136.77,590286,-250.34
596197,-91.48,590373,-181.52
596193,-75.03,590375,-147.49
596206,-55.79,590398,-111.04
596287,8.26,590536,0.37
596300,32.42,590540,31.01
596323,51.24,590582,64.33
596323,51.63,590588,71.31
596344,61.53,590628,93.95
596339,55.44,590631,93.73
596392,84.87,590705,135.59
596386,81.05,590707,135.98
596408,88.09,590745,150.18
596412,85.08,590750,144.45
596434,91.93,590778,149.63
596433,85.21,590783,141.64
596233,-58.28,590428,-111.26
596257,-73.21,590422,-169.4
596249,-76.14,590409,-178.47
596334,-13.24,590568,-58.6
596333,2.94,590567,-24.3
596384,41.1,590665,52.39
596400,58.02,590662,65.14
596377,41.9,590619,33.92
596369,28.87,590618,22.54
596392,38.62,590637,30.58
596378,28.39,590633,27.34
596419,51.04,590689,61.86
596419,52.37,590694,68.67
596425,52.34,590713,77.37
596435,54.6,590714,73.7
596430,47.21,590758,96.2
596456,58.87,590745,84.96
596444,48.72,590727,62.82
596251,-87.84,590376,-184.29
596259,-109.33,590372,-233.46
596371,-30.07,590577,-88.03
596377,-3.61,590577,-44.13
596417,30.19,590637,11.01
596422,39.5,590645,29.3
596409,29.79,590615,11.21
596405,22.16,590611,3.07
596419,27.8,590642,21.63
596417,25.51,590637,21.07
596456,49.02,590696,58.85
596455,50.14,590699,65.4
596450,42.84,590692,56.78
596470,50.83,590705,58.59
596463,43.81,590711,58.15
596441,23.57,590674,28.21
596453,24.54,590655,5.52
596265,-103.79,590336,-215.35
596269,-124.58,590336,-252.59
596380,-44.51,590534,-107.3
596383,-18.7,590541,-57.08
596454,37.2,590669,46.51
596468,57.52,590662,63.86
596449,44.98,590653,56.76
596455,42.08,590651,48.83
596495,64.67,590734,98.6
596496,65.56,590727,97.99
596482,50.84,590695,68.1
596466,32.1,590710,64.93
596483,36.15,590717,63.32
596472,26.73,590702,47.49
596480,27.43,590701,38.84
596423,-13.06,590585,-44.65
596420,-24.16,590569,-72.69
596337,-80.78,590414,-177.9
596341,-85.44,590421,-184.51
596425,-22.91,590581,-62.92
596439,4.2,590584,-25.04
596459,24.09,590621,11.51
596442,15.6,590609,11.6
596416,-5.37,590556,-25.06
596415,-10.86,590564,-26.71
596430,-1.22,590574,-18.14
596426,-1.39,590571,-16.49
596430,1.36,590576,-11.29
596438,7.34,590568,-14.43
596430,2.84,590570,-12.64
596429,0.79,590572,-9.77
596430,0.85,590573,-7.56
596402,-17.98,590523,-40.02
596390,-29.25,590509,-54.2
596228,-138.73,590193,-265.84
596223,-157.8,590197,-293.82
596335,-73.91,590346,-175.73
596319,-57.35,590348,-129.85
596352,-26.15,590416,-61.58
596357,-12.72,590421,-35.91
596342,-18.37,590420,-27.05
596353,-10.87,590396,-38.75
596355,-6.69,590399,-36.36
596384,14.47,590479,21.15
596385,19.22,590472,29.04
596396,26.21,590479,33.32
596388,20.36,590484,34.93
596388,17.19,590490,36.44
596393,18.26,590491,34.38
596397,19.66,590502,38.37
596401,21.04,590509,40.82
596205,-112.28,590121,-223.18
596188,-147.74,590104,-282.05
596266,-91.68,590252,-173.37
596281,-59.76,590239,-140.21
596282,-46.09,590252,-111.3
596310,-19.9,590314,-52.95
596306,-14.31,590312,-35.09
596281,-28.57,590252,-68.08
596270,-37.15,590259,-65.93
596311,-8.55,590292,-37.57
596298,-9.4,590294,-25.95
596320,6.02,590338,8.75
596330,16.13,590338,16.79
596320,10.58,590338,17.34
596322,9.61,590351,24.73
596343,22.74,590401,58.16
596354,31.47,590409,67.02
596170,-92.88,590062,-170.03
596167,-118.27,590056,-219.19
596237,-67.47,590201,-115.37
596248,-41.6,590205,-76.86
596249,-30.9,590212,-56.02
596301,9.36,590294,9.12
596302,19.36,590306,32.84
596289,11.41,590287,23.17
596290,9.2,590273,9.41
596321,28.71,590324,39.49
596310,23.76,590324,43.72
596347,45.43,590388,84.15
596351,49.68,590377,79.83
596360,52.62,590417,98.92
596359,48.23,590420,97.37
596361,44.43,590415,85.41
596366,43.08,590418,77.17
596161,-98.83,590096,-148.2
596179,-114.05,590079,-203.7
596170,-114.3,590069,-207.1
596219,-71.73,590149,-136.68
596214,-58.3,590153,-104.69
596265,-15.7,590241,-28.61
596268,-1.64,590246,-3.79
596264,-0.66,590244,1.42
596260,-3.03,590243,1.97
596258,-4.73,590239,-0.82
596265,0.01,590249,5.34
596290,17.99,590284,30.0
596286,18.27,590298,43.01
596291,20.19,590337,68.92
596301,25.7,590335,68.24
596310,30.98,590331,59.62
596300,22.98,590353,67.21
596309,25.11,590364,70.88
596225,-33.04,590217,-33.14
596226,-44.2,590199,-68.6
596136,-103.84,590028,-186.82
596152,-99.21,590034,-196.69
596219,-44.57,590172,-89.61
596220,-26.45,590174,-53.87
596240,-6.22,590208,-17.48
596228,-8.74,590210,-5.46
596234,-4.6,590204,-6.03
596225,-9.24,590195,-11.75
596255,10.61,590257,29.57
596258,16.71,590262,40.78
596251,12.08,590260,38.8
596290,36.2,590314,71.4
596285,35.8,590319,76.91
596308,48.15,590353,94.71
596295,38.48,590355,92.53
596325,53.0,590390,107.71
596330,55.51,590399,108.45
596139,-77.11,590040,-142.17
596145,-99.82,590036,-195.71
596209,-53.99,590153,-113.93
596207,-39.35,590155,-82.43
596264,6.08,590245,-6.97
596258,12.91,590258,21.29
596261,15.56,590245,17.84
596247,5.47,590248,17.49
596253,6.52,590249,16.62
596273,19.71,590253,17.66
596268,17.98,590258,19.81
596285,27.48,590273,28.75
596274,20.12,590279,32.67
596287,25.33,590289,37.58
596286,23.84,590287,34.34
596284,20.15,590313,48.11
596285,18.17,590307,43.51
596188,-49.11,590115,-90.59
596179,-67.95,590103,-124.67
596152,-85.12,590032,-170.55
596153,-81.55,590053,-153.5
596227,-23.96,590164,-61.53
596212,-17.53,590166,-31.9
596224,-6.42,590175,-15.72
596227,-1.1,590184,-4.19
596227,0.38,590182,-2.36
596225,-0.69,590161,-15.81
596227,0.43,590174,-9.05
596261,23.52,590232,32.45
596267,31.41,590237,43.48
596267,30.73,590255,54.69
596273,31.96,590262,57.61
596281,34.98,590273,60.87
596276,29.37,590281,61.97
596131,-72.12,589982,-144.33
596123,-96.85,589962,-197.3
596124,-94.23,589958,-196.66
596115,-91.64,589962,-177.18
596131,-72.49,589972,-150.59
596128,-63.57,589996,-115.08
596141,-47.2,589999,-94.39
596116,-55.92,589970,-100.8
596120,-50.71,589963,-98.59
596051,-91.56,589838,-173.87
596052,-93.47,589840,-176.67
596080,-67.18,589911,-114.73
596080,-54.89,589916,-86.04
596132,-12.2,590049,17.93
596144,7.68,590037,34.45
596201,50.34,590140,105.03
596196,53.46,590153,122.64
596130,5.34,590003,15.73
596115,-17.29,589994,-18.47
596121,-17.48,589978,-36.31
596079,-44.32,589888,-98.33
596077,-48.65,589886,-106.94
596207,41.9,590169,90.5
596216,67.11,590178,138.44
596247,88.63,590244,183.2
596251,89.28,590253,185.02
596326,132.36,590398,267.45
596343,143.43,590401,267.59
596534,262.65,590795,510.2
596533,269.71,590810,538.13
596667,338.91,591036,651.82
596667,327.63,591044,630.65
596682,307.23,591018,554.58
596662,262.63,591007,481.24
596674,237.37,591012,425.55
596478,79.03,590599,97.61
596459,19.82,590578,-7.07
596398,-37.8,590460,-112.24
596405,-44.36,590464,-126.45
596422,-30.86,590501,-94.43
596413,-30.85,590494,-83.14
596488,22.19,590629,17.61
596488,33.64,590633,44.11
596567,86.91,590787,150.71
596567,92.92,590779,159.38
596557,79.85,590757,133.29
596560,71.8,590770,124.18
596550,56.98,590764,107.41
596591,76.1,590823,133.84
596591,74.43,590836,137.91
596628,92.65,590874,152.85
596636,94.77,590881,148.37
596620,76.52,590878,132.73
596619,64.84,590854,101.42
596453,-55.34,590543,-124.34
596448,-84.23,590538,-173.85
596541,-21.75,590717,-51.12
596541,-4.22,590716,-16.66
596581,27.54,590805,53.34
596585,35.82,590804,65.71
596570,24.8,590767,38.35
596568,18.6,590755,20.21
596587,28.2,590773,26.06
596594,32.97,590825,60.32
596591,29.35,590821,61.15
596618,44.14,590877,93.89
596612,40.1,590884,98.93
596644,57.23,590931,123.48
596658,66.11,590927,116.47
596517,-32.13,590677,-63.41
596506,-61.51,590668,-109.27
596512,-59.64,590680,-103.45
596524,-46.08,590684,-90.55
596571,-7.11,590768,-23.12
596564,-1.48,590759,-10.33
596582,12.14,590779,7.23
596584,15.89,590795,21.81
596611,33.66,590844,56.63
596624,44.05,590841,58.55
596619,39.54,590847,58.15
596696,86.93,590996,153.45
596700,94.18,591005,170.42
596754,124.42,591091,218.19
596755,122.12,591109,223.9
596829,161.06,591243,296.6
