pc_time_ms,emg_raw,emg_clean,emg_env,emg_ts,ppg_red_raw,ppg_ir_raw,ppg_red,ppg_ir,ppg_ts
86,0,0.0,0.0,171635,772,688,5.43,-6.61,171524
191,0,0.0,0.0,171739,761,693,-1.68,-3.09,171628
191,0,0.0,0.0,171842,768,702,1.83,3.08,171730
396,0,0.0,0.0,171944,765,695,-0.27,-2.65,171833
396,0,0.0,0.0,172047,762,699,-2.99,0.13,171935
601,0,0.0,0.0,172149,761,698,-3.31,-0.93,172038
601,0,0.0,0.0,172252,766,699,0.9,1.16,172140
806,0,0.0,0.0,172353,762,698,-0.7,-0.15,172242
806,0,0.0,0.0,172456,769,708,2.36,5.31,172344
1110,0,0.0,0.0,172557,767,699,1.25,-1.23,172446
1110,0,0.0,0.0,172660,770,700,2.75,-0.59,172548
1217,0,0.0,0.0,172761,767,699,1.03,-1.7,172650
1217,0,0.0,0.0,172864,764,692,-0.58,-6.52,172752
1421,0,0.0,0.0,172966,769,698,3.38,-0.23,172855
1421,0,0.0,0.0,173069,773,698,4.01,-0.68,172957
1626,0,0.0,0.0,173171,762,700,-3.73,0.58,173060
1626,0,0.0,0.0,173274,771,703,3.09,1.7,173162
1692,0,0.0,0.0,173375,764,695,-1.38,-2.57,173264
1800,0,0.0,0.0,173481,771,706,2.56,5.7,173370
2037,0,0.0,0.0,173590,762,698,-3.22,-0.09,173479
2037,0,0.0,0.0,173693,762,703,-2.64,2.68,173581
2111,0,0.0,0.0,173794,770,698,3.8,-0.72,173683
2220,0,0.0,0.0,173900,758,712,-5.12,8.41,173789
2329,0,0.0,0.0,174009,763,699,-1.24,-1.12,173898
2445,0,0.0,0.0,174118,765,699,0.08,-0.85,174007
2652,0,0.0,0.0,174223,766,696,1.02,-2.94,174112
2652,0,0.0,0.0,174327,765,696,-0.09,-1.71,174215
2855,0,0.0,0.0,174429,764,703,-0.2,0.99,174318
2855,0,0.0,0.0,174532,768,698,1.0,-1.83,174420
3059,0,0.0,0.0,174634,772,701,4.06,0.4,174523
3060,0,0.0,0.0,174737,757,700,-6.47,-0.31,174625
3362,0,0.0,0.0,174839,762,706,-2.5,4.22,174728
3362,0,0.0,0.0,174942,770,695,2.84,-2.23,174830
3496,0,0.0,0.0,175044,766,696,-0.29,-3.66,174933
3496,0,0.0,0.0,175147,766,697,-0.9,-1.22,175035
3674,0,0.0,0.0,175249,764,700,-1.26,1.42,175138
3674,0,0.0,0.0,175352,764,697,-1.29,-1.75,175240
3915,0,0.0,0.0,175454,755,704,-6.94,4.05,175343
3915,0,0.0,0.0,175557,763,699,-0.84,0.13,175445
4181,0,0.0,0.0,175668,761,710,-2.56,5.7,175557
4350,0,0.0,0.0,175772,763,705,-1.22,2.98,175661
4351,0,0.0,0.0,175875,762,707,-2.81,4.47,175763
4591,0,0.0,0.0,175977,764,697,-0.71,-2.25,175866
4592,0,0.0,0.0,176080,766,694,1.5,-4.23,175968
4796,0,0.0,0.0,176182,767,703,-0.08,2.92,176071
4796,0,0.0,0.0,176285,777,701,7.31,2.43,176173
5000,0,0.0,0.0,176388,763,700,-2.1,-0.19,176277
5001,0,0.0,0.0,176491,766,697,-0.55,-3.16,176379
5206,0,0.0,0.0,176593,763,699,-1.97,0.39,176482
5206,0,0.0,0.0,176697,767,698,1.16,-0.79,176585
5410,0,0.0,0.0,176800,769,697,3.21,-1.54,176689
5410,0,0.0,0.0,176903,762,701,-1.85,0.76,176791
5615,0,0.0,0.0,177006,765,689,0.46,-5.37,176895
5616,0,0.0,0.0,177109,763,707,-1.06,4.42,176997
5819,0,0.0,0.0,177211,767,705,2.09,3.66,177100
5820,0,0.0,0.0,177314,759,697,-5.61,-1.8,177202
6026,0,0.0,0.0,177417,759,703,-3.7,1.66,177306
6026,0,0.0,0.0,177520,767,699,1.96,-1.67,177408
6230,0,0.0,0.0,177623,764,700,-0.54,-1.09,177512
6230,0,0.0,0.0,177726,767,697,1.89,-3.02,177614
6435,0,0.0,0.0,177829,768,699,2.4,-0.44,177718
6435,0,0.0,0.0,177932,769,693,3.0,-5.64,177820
6639,0,0.0,0.0,178034,758,695,-5.03,-1.8,177923
6639,0,0.0,0.0,178137,765,700,1.01,-0.67,178025
6844,0,0.0,0.0,178240,767,702,-0.2,1.03,178129
6844,0,0.0,0.0,178344,763,699,-2.49,0.77,178232
7049,0,0.0,0.0,178447,765,705,0.21,4.38,178336
7050,0,0.0,0.0,178550,767,697,1.06,-1.4,178438
7253,0,0.0,0.0,178652,770,703,3.71,1.59,178541
7253,0,0.0,0.0,178755,760,698,-2.89,0.11,178643
7459,0,0.0,0.0,178857,767,698,1.22,-2.83,178746
7460,0,0.0,0.0,178960,771,702,3.53,1.17,178848
7664,0,0.0,0.0,179063,769,705,2.69,2.57,178952
7664,0,0.0,0.0,179166,765,700,-1.67,-1.03,179054
7869,0,0.0,0.0,179268,757,702,-6.66,1.34,179157
7869,0,0.0,0.0,179371,768,699,1.38,0.27,179259
8072,0,0.0,0.0,179474,768,696,0.46,-1.21,179363
8073,0,0.0,0.0,179577,763,698,-1.72,1.07,179465
8277,0,0.0,0.0,179680,764,707,-0.44,6.4,179569
8277,0,0.0,0.0,179783,763,697,-1.57,-1.68,179671
8343,0,0.0,0.0,179885,765,699,-1.23,-1.06,179774
8343,0,0.0,0.0,179988,764,704,-1.31,2.37,179876
8789,0,0.0,0.0,180091,761,698,-2.19,-2.66,179980
8789,0,0.0,0.0,180194,770,697,4.3,-2.07,180082
9097,0,0.0,0.0,180296,763,696,-0.93,-2.17,180185
9098,0,0.0,0.0,180399,768,698,2.33,-1.29,180287
9098,0,0.0,0.0,180502,764,698,-1.41,-0.46,180391
9098,0,0.0,0.0,180605,771,703,4.12,1.1,180493
9302,0,0.0,0.0,180706,768,703,1.29,2.16,180595
9303,0,0.0,0.0,180809,768,699,0.4,-1.06,180697
9507,0,0.0,0.0,180911,767,708,0.48,4.22,180800
9507,0,0.0,0.0,181014,773,698,3.79,-2.4,180902
9712,0,0.0,0.0,181117,767,701,-0.09,-0.42,181006
9712,0,0.0,0.0,181220,770,700,2.36,-0.21,181108
9917,0,0.0,0.0,181323,769,695,1.41,-3.68,181212
9917,0,0.0,0.0,181426,768,699,0.57,-0.03,181314
10024,0,0.0,0.0,181528,772,703,3.44,1.39,181417
10024,0,0.0,0.0,181631,770,699,2.43,0.15,181519
10326,0,0.0,0.0,181734,761,713,-3.64,9.31,181623
10326,0,0.0,0.0,181837,761,704,-2.97,4.1,181725
10531,0,0.0,0.0,181939,767,700,0.56,-0.7,181828
10531,0,0.0,0.0,182042,773,701,4.9,0.49,181930
10736,0,0.0,0.0,182145,764,706,-1.48,3.41,182034
10736,0,0.0,0.0,182248,766,699,0.35,-1.04,182136
10941,0,0.0,0.0,182350,773,699,4.06,-1.61,182239
10941,0,0.0,0.0,182453,762,699,-3.39,-1.46,182341
11145,0,0.0,0.0,182555,764,700,-2.27,0.35,182444
11145,0,0.0,0.0,182658,764,698,-1.41,-2.41,182546
11349,0,0.0,0.0,182761,765,698,-1.44,-1.16,182650
11350,0,0.0,0.0,182864,759,706,-5.08,4.21,182752
11555,0,0.0,0.0,182967,770,699,3.18,-0.55,182856
11555,0,0.0,0.0,183070,766,693,0.61,-6.25,182958
11759,0,0.0,0.0,183172,768,695,2.54,-3.5,183061
11759,0,0.0,0.0,183275,765,705,0.2,4.05,183163
11964,0,0.0,0.0,183377,769,700,3.04,0.22,183266
11964,0,0.0,0.0,183480,766,701,0.85,0.57,183368
12170,0,0.0,0.0,183582,766,700,-0.01,0.43,183471
12170,0,0.0,0.0,183685,769,702,1.86,2.18,183573
12374,0,0.0,0.0,183788,768,705,2.02,3.76,183677
12374,0,0.0,0.0,183891,768,713,1.27,8.78,183779
12578,0,0.0,0.0,183994,768,702,2.1,0.7,183883
12579,0,0.0,0.0,184097,767,693,-0.65,-5.62,183985
12784,0,0.0,0.0,184199,772,701,2.96,-0.18,184088
12784,0,0.0,0.0,184302,764,703,-2.47,1.43,184190
12989,0,0.0,0.0,184405,759,694,-4.92,-3.43,184294
12989,0,0.0,0.0,184509,765,698,-1.39,0.6,184398
13194,0,0.0,0.0,184611,762,702,-3.73,2.39,184500
13194,0,0.0,0.0,184714,770,700,2.96,-0.18,184602
13397,0,0.0,0.0,184818,777,699,9.04,-1.23,184706
13398,0,0.0,0.0,184921,758,702,-6.43,1.23,184809
13603,0,0.0,0.0,185024,760,697,-4.42,-2.07,184913
13604,0,0.0,0.0,185127,765,705,0.83,3.89,185015
13756,0,0.0,0.0,185229,764,703,0.9,1.62,185118
13756,0,0.0,0.0,185332,768,700,2.71,-0.14,185220
14012,0,0.0,0.0,185435,762,703,-1.22,1.9,185324
14012,0,0.0,0.0,185538,766,703,0.65,2.27,185426
14217,0,0.0,0.0,185640,766,693,1.73,-6.84,185529
14217,0,0.0,0.0,185743,761,704,-3.78,1.45,185631
14422,0,0.0,0.0,185846,775,697,5.85,-2.49,185735
14423,0,0.0,0.0,185949,765,699,-0.47,-0.28,185837
14571,0,0.0,0.0,186052,771,700,4.09,0.49,185941
14572,0,0.0,0.0,186155,760,696,-3.33,-2.84,186043
14736,0,0.0,0.0,186258,766,702,1.28,0.19,186147
14736,0,0.0,0.0,186361,767,703,-0.21,0.77,186249
14937,0,0.0,0.0,186463,755,698,-6.6,-1.43,186352
14938,0,0.0,0.0,186566,768,703,2.05,1.58,186454
14987,0,0.0,0.0,186669,765,708,-1.28,5.81,186558
15144,0,0.0,0.0,186775,763,701,-1.19,0.16,186664
15350,0,0.0,0.0,186878,772,702,5.16,-0.17,186767
15350,0,0.0,0.0,186983,764,700,-0.01,-0.56,186871
15554,0,0.0,0.0,187085,765,698,0.69,-1.28,186974
15554,0,0.0,0.0,187190,761,694,-1.63,-5.55,187078
15761,0,0.0,0.0,187292,768,697,1.91,-3.19,187181
15761,0,0.0,0.0,187395,763,699,-2.98,-1.41,187283
16061,0,0.0,0.0,187497,763,705,-2.61,2.31,187386
16061,0,0.0,0.0,187600,766,696,0.29,-3.45,187488
16266,0,0.0,0.0,187703,760,698,-3.68,-2.1,187592
16266,0,0.0,0.0,187806,765,700,-1.19,0.39,187694
16470,0,0.0,0.0,187908,764,700,-1.67,-0.44,187797
16470,0,0.0,0.0,188012,767,708,0.74,5.38,187900
16675,0,0.0,0.0,188114,765,703,-0.28,2.22,188003
16675,0,0.0,0.0,188218,762,701,-4.02,0.02,188106
16880,0,0.0,0.0,188320,767,690,-0.05,-6.38,188209
16880,0,0.0,0.0,188424,770,710,2.28,8.23,188312
17084,0,0.0,0.0,188526,762,709,-2.48,7.28,188415
17084,0,0.0,0.0,188629,765,697,-1.45,-2.34,188517
17289,0,0.0,0.0,188731,771,703,3.79,1.24,188620
17289,0,0.0,0.0,188835,770,695,1.96,-2.82,188723
17494,0,0.0,0.0,188936,768,702,1.41,3.34,188825
17495,0,0.0,0.0,189040,766,701,-0.09,-0.62,188928
17698,0,0.0,0.0,189142,760,702,-4.39,1.8,189031
17699,0,0.0,0.0,189245,773,699,4.27,-2.18,189133
17903,0,0.0,0.0,189346,762,702,-3.72,0.61,189235
17904,0,0.0,0.0,189449,764,701,-0.43,0.0,189337
18109,0,0.0,0.0,189550,771,699,2.28,-0.25,189439
18109,0,0.0,0.0,189654,765,703,-0.93,2.11,189542
18313,0,0.0,0.0,189756,765,702,-0.92,0.73,189645
18314,0,0.0,0.0,189859,766,701,0.09,-0.49,189747
18518,0,0.0,0.0,189960,762,703,-1.12,1.86,189849
18518,0,0.0,0.0,190063,760,698,-3.14,-1.2,189951
18722,0,0.0,0.0,190166,764,694,-0.29,-5.8,190054
18722,0,0.0,0.0,190269,762,691,-1.23,-4.16,190157
18927,0,0.0,0.0,190370,769,695,2.75,-2.24,190259
18927,0,0.0,0.0,190473,763,710,-0.92,7.95,190361
19132,0,0.0,0.0,190574,771,696,1.8,-2.27,190463
19132,0,0.0,0.0,190677,764,703,-1.94,0.88,190565
19337,0,0.0,0.0,190778,766,697,0.48,-1.94,190667
19337,0,0.0,0.0,190881,762,702,-3.72,1.7,190769
19542,0,0.0,0.0,190983,762,702,-1.29,0.37,190872
19542,0,0.0,0.0,191086,770,699,2.11,0.79,190974
19748,0,0.0,0.0,191188,759,695,-4.09,-4.5,191077
19748,0,0.0,0.0,191291,786,699,12.91,-0.69,191179
19952,0,0.0,0.0,191393,766,696,-0.72,-2.56,191281
19953,0,0.0,0.0,191496,764,696,-2.46,-2.41,191384
20119,0,0.0,0.0,191597,769,699,1.59,0.18,191486
20119,0,0.0,0.0,191701,768,696,0.26,-2.33,191589
20305,0,0.0,0.0,191803,773,708,3.58,6.62,191692
20306,0,0.0,0.0,191906,765,693,-3.55,-3.53,191794
20567,0,0.0,0.0,192009,759,708,-6.85,6.09,191897
20567,0,0.0,0.0,192112,762,700,-4.55,-0.13,192000
20714,0,0.0,0.0,192214,771,703,2.98,1.92,192103
20714,0,0.0,0.0,192317,772,697,2.4,-1.99,192205
20975,0,0.0,0.0,192418,769,698,1.14,0.37,192307
20976,0,0.0,0.0,192522,772,698,2.84,-0.61,192410
21181,0,0.0,0.0,192623,762,704,-2.98,3.38,192512
21181,0,0.0,0.0,192726,776,702,6.0,2.05,192614
21382,0,0.0,0.0,192827,765,711,-0.93,7.82,192716
21382,0,0.0,0.0,192930,763,699,-2.52,-2.33,192818
21590,0,0.0,0.0,193031,765,698,-1.01,-2.26,192920
21591,0,0.0,0.0,193135,765,700,0.1,-0.94,193023
21795,0,0.0,0.0,193237,774,689,6.02,-7.48,193126
21796,0,0.0,0.0,193340,761,698,-2.53,-0.89,193228
22000,0,0.0,0.0,193442,764,698,-1.17,0.04,193331
22000,0,0.0,0.0,193545,768,700,1.51,1.23,193433
22205,0,0.0,0.0,193647,760,701,-2.76,2.31,193535
22205,0,0.0,0.0,193750,758,701,-4.59,1.55,193638
22409,0,0.0,0.0,193852,757,699,-4.94,0.34,193741
22410,0,0.0,0.0,193955,763,702,-1.25,1.72,193843
22614,0,0.0,0.0,194056,764,697,0.36,-1.15,193945
22615,0,0.0,0.0,194159,772,697,5.18,-0.76,194047
22819,0,0.0,0.0,194261,765,696,-0.8,-1.32,194150
22820,0,0.0,0.0,194364,763,698,-1.77,1.15,194252
23024,0,0.0,0.0,194466,763,699,-0.78,1.35,194355
23025,0,0.0,0.0,194570,763,697,-3.68,-1.32,194458
23228,0,0.0,0.0,194672,772,700,5.1,1.87,194561
23228,0,0.0,0.0,194775,760,697,-5.08,1.41,194663
23335,0,0.0,0.0,194876,757,700,-4.71,0.81,194765
23336,0,0.0,0.0,194979,768,700,1.55,-0.01,194867
23430,0,0.0,0.0,195081,769,696,2.73,-2.5,194970
23638,0,0.0,0.0,195187,765,707,0.49,4.44,195076
23844,0,0.0,0.0,195290,763,702,-0.97,0.82,195179
23844,0,0.0,0.0,195393,769,701,1.92,0.92,195281
24048,0,0.0,0.0,195495,765,699,-0.69,-0.04,195384
24048,0,0.0,0.0,195598,774,702,4.79,2.62,195486
24155,0,0.0,0.0,195699,766,705,-1.5,2.79,195588
24155,0,0.0,0.0,195802,759,701,-6.14,0.4,195690
24536,0,0.0,0.0,195903,763,696,-2.79,-2.23,195792
24537,0,0.0,0.0,196006,773,703,3.64,1.09,195894
24867,0,0.0,0.0,196107,769,695,0.4,-3.61,195996
24867,0,0.0,0.0,196210,768,699,-0.45,-1.09,196098
24867,0,0.0,0.0,196311,773,705,3.43,3.25,196200
24867,0,0.0,0.0,196414,771,706,2.25,4.71,196302
25071,0,0.0,0.0,196516,776,701,5.32,0.9,196405
25072,0,0.0,0.0,196619,771,692,2.56,-4.43,196507
25277,0,0.0,0.0,196721,768,694,-1.62,-3.53,196610
25277,0,0.0,0.0,196824,762,699,-4.66,-0.29,196712
25383,0,0.0,0.0,196926,768,707,1.6,5.54,196815
25383,0,0.0,0.0,197029,760,698,-5.14,-0.79,196917
25478,0,0.0,0.0,197131,760,701,-4.44,1.01,197020
25686,0,0.0,0.0,197237,763,703,-3.1,1.07,197126
25891,0,0.0,0.0,197340,764,699,-0.9,-1.65,197229
25891,0,0.0,0.0,197443,771,691,3.9,-6.89,197331
26095,0,0.0,0.0,197544,765,698,-0.34,0.1,197433
26096,0,0.0,0.0,197648,770,698,2.59,-1.46,197536
26300,0,0.0,0.0,197750,762,696,-3.83,-3.05,197639
26300,0,0.0,0.0,197853,769,699,1.57,-0.21,197741
26506,0,0.0,0.0,197955,763,697,-1.8,-1.87,197844
26506,0,0.0,0.0,198058,780,703,10.68,1.48,197946
26711,0,0.0,0.0,198160,763,691,-3.54,-5.46,198049
26711,0,0.0,0.0,198263,772,706,2.28,4.72,198151
26915,0,0.0,0.0,198364,766,700,-0.83,1.45,198253
26915,0,0.0,0.0,198467,762,702,-4.36,0.61,198355
27119,0,0.0,0.0,198568,767,702,1.11,0.11,198457
27119,0,0.0,0.0,198671,767,701,0.88,-0.57,198559
27325,0,0.0,0.0,198772,764,709,-2.08,5.63,198661
27325,0,0.0,0.0,198875,770,695,2.1,-4.14,198763
27530,0,0.0,0.0,198977,769,706,2.29,2.47,198866
27530,0,0.0,0.0,199080,764,701,-3.06,-0.43,198968
27734,0,0.0,0.0,199182,765,699,-1.02,0.3,199071
27734,0,0.0,0.0,199285,769,701,2.87,0.39,199173
27939,0,0.0,0.0,199386,766,702,-0.62,0.59,199275
27939,0,0.0,0.0,199489,763,695,-3.87,-4.95,199377
28144,0,0.0,0.0,199590,764,710,-3.2,6.55,199479
28145,0,0.0,0.0,199693,771,702,2.17,0.53,199581
28349,0,0.0,0.0,199794,765,704,2.09,1.71,199683
28350,0,0.0,0.0,199897,766,694,0.81,-3.61,199786
28554,0,0.0,0.0,199999,755,705,-8.16,4.27,199888
28554,0,0.0,0.0,200103,764,698,-1.5,-1.45,199991
28759,0,0.0,0.0,200206,767,699,1.29,-1.55,200094
28759,0,0.0,0.0,200309,762,701,-3.37,1.41,200197
28964,0,0.0,0.0,200411,777,698,6.73,-1.3,200300
28964,0,0.0,0.0,200514,761,701,-4.79,1.61,200402
29168,0,0.0,0.0,200615,767,691,-0.15,-4.39,200504
29169,0,0.0,0.0,200718,765,701,-1.03,1.47,200606
29373,0,0.0,0.0,200819,764,701,-1.06,0.95,200708
29373,0,0.0,0.0,200923,763,707,-0.22,4.61,200811
29577,0,0.0,0.0,201025,760,701,-3.18,0.13,200914
29577,0,0.0,0.0,201128,773,683,4.91,-12.02,201016
29783,0,0.0,0.0,201230,766,704,-0.25,3.59,201119
29783,0,0.0,0.0,201333,772,703,4.3,1.59,201221
29987,0,0.0,0.0,201436,765,689,-0.81,-8.19,201325
29987,0,0.0,0.0,201539,767,698,0.74,-1.57,201427
30191,0,0.0,0.0,201640,769,700,2.3,1.28,201529
30192,0,0.0,0.0,201743,765,697,0.43,-2.14,201631
30397,0,0.0,0.0,201844,769,697,2.13,-1.28,201733
30398,0,0.0,0.0,201947,760,703,-4.08,2.18,201835
30602,0,0.0,0.0,202048,761,702,-3.72,1.6,201937
30602,0,0.0,0.0,202151,776,703,6.65,2.66,202039
30787,0,0.0,0.0,202253,762,699,-3.33,0.43,202142
30787,0,0.0,0.0,202356,755,698,-7.75,-1.0,202244
31012,0,0.0,0.0,202458,761,701,-4.0,0.55,202347
31012,0,0.0,0.0,202561,768,699,2.16,-1.34,202449
31216,0,0.0,0.0,202662,762,698,-2.24,-0.34,202551
31216,0,0.0,0.0,202765,761,703,-2.84,2.13,202653
31421,0,0.0,0.0,202866,766,701,-0.44,-0.68,202755
31422,0,0.0,0.0,202969,762,690,-1.46,-7.5,202857
31626,0,0.0,0.0,203070,763,703,-0.51,1.16,202959
31626,0,0.0,0.0,203173,780,697,10.67,-2.72,203061
31733,0,0.0,0.0,203275,763,697,-2.11,-3.37,203164
31733,0,0.0,0.0,203378,767,696,0.84,-1.95,203266
32035,0,0.0,0.0,203480,770,700,1.87,1.74,203369
32035,0,0.0,0.0,203583,769,701,1.52,0.61,203471
32240,0,0.0,0.0,203685,762,700,-3.54,0.56,203574
32240,0,0.0,0.0,203789,762,698,-3.63,-1.71,203677
32444,0,0.0,0.0,203890,768,696,1.96,-2.62,203779
32445,0,0.0,0.0,203993,772,698,3.28,-0.45,203881
32649,0,0.0,0.0,204094,766,702,-0.39,0.9,203983
32650,0,0.0,0.0,204197,767,698,0.98,-1.66,204085
32855,0,0.0,0.0,204298,767,699,2.4,-1.76,204187
32855,0,0.0,0.0,204401,769,702,1.24,2.0,204289
33059,0,0.0,0.0,204503,765,694,-1.5,-3.41,204392
33059,0,0.0,0.0,204606,767,700,0.12,0.17,204494
33265,0,0.0,0.0,204708,764,701,-1.53,0.21,204597
33265,0,0.0,0.0,204811,767,698,1.17,-0.98,204699
33469,0,0.0,0.0,204912,766,703,0.2,4.67,204801
33470,0,0.0,0.0,205015,765,702,-0.11,0.72,204903
33675,0,0.0,0.0,205117,765,710,-0.89,6.74,205006
33675,0,0.0,0.0,205220,768,696,0.74,-2.81,205108
33878,0,0.0,0.0,205323,764,700,-2.54,-1.05,205212
33879,0,0.0,0.0,205426,766,706,0.14,3.61,205314
34083,0,0.0,0.0,205528,762,700,-2.14,-0.19,205417
34084,0,0.0,0.0,205631,766,701,1.15,-1.41,205519
34289,0,0.0,0.0,205733,765,705,-0.53,3.31,205622
34289,0,0.0,0.0,205836,774,715,5.72,12.33,205724
34493,0,0.0,0.0,205938,807,757,28.45,38.35,205827
34493,0,0.0,0.0,206041,826,790,42.87,61.04,205929
34697,0,0.0,0.0,206143,888,869,80.49,111.67,206032
34697,0,0.0,0.0,206246,951,945,106.6,137.99,206134
34903,0,0.0,0.0,206347,971,957,101.63,118.52,206236
34903,0,0.0,0.0,206451,978,985,77.73,102.98,206339
35069,0,0.0,0.0,206552,971,961,51.4,63.48,206441
35069,0,0.0,0.0,206655,924,888,-4.34,-18.25,206543
35312,0,0.0,0.0,206757,834,809,-67.67,-73.57,206646
35312,0,0.0,0.0,206860,856,839,-53.12,-49.0,206748
35518,0,0.0,0.0,206961,875,905,-21.14,17.1,206850
35518,0,0.0,0.0,207064,887,911,-1.59,32.1,206952
35721,0,0.0,0.0,207166,921,1028,25.97,116.37,207055
35722,0,0.0,0.0,207269,954,1131,47.83,177.77,207157
35927,0,0.0,0.0,207371,1002,1215,71.8,191.37,207260
35927,0,0.0,0.0,207474,965,1020,26.29,-7.43,207362
36132,0,0.0,0.0,207575,1068,1221,86.29,110.08,207464
36132,0,0.0,0.0,207678,1014,1100,39.52,24.47,207566
36336,0,0.0,0.0,207779,953,931,-20.51,-119.81,207668
36336,0,0.0,0.0,207882,1389,1398,287.82,226.2,207770
36542,0,0.0,0.0,207984,2683,3062,1158.1,1388.1,207873
36542,0,0.0,0.0,208087,6520,6744,4066.04,4186.41,207975
36745,0,0.0,0.0,208189,8101,8431,4507.8,4659.61,208078
36746,0,0.0,0.0,208292,7875,8621,3246.02,3698.64,208180
36950,0,0.0,0.0,208393,8250,7035,2523.9,1533.8,208282
36950,0,0.0,0.0,208496,9456,7617,2727.27,1113.6,208384
37155,0,0.0,0.0,208597,11789,10476,3973.07,3104.43,208486
37155,0,0.0,0.0,208700,14768,11784,5563.2,3626.4,208588
37360,0,0.0,0.0,208801,14797,11352,4042.82,2245.76,208690
37360,0,0.0,0.0,208905,15178,12607,3448.04,2703.36,208793
37565,0,0.0,0.0,209007,12320,12932,401.3,2215.71,208896
37565,0,0.0,0.0,209110,9148,10199,-2293.34,-219.99,208998
37770,0,0.0,0.0,209212,9355,9899,-2118.79,-959.98,209101
37770,0,0.0,0.0,209315,3674,3850,-5683.99,-5210.78,209203
37975,0,0.0,0.0,209416,3038,2962,-5038.06,-4880.33,209305
37976,0,0.0,0.0,209519,2495,2458,-3916.23,-3793.43,209407
38180,0,0.0,0.0,209621,2564,2534,-2979.71,-2881.87,209509
38180,0,0.0,0.0,209724,2659,2608,-1955.23,-1903.18,209612
38384,0,0.0,0.0,209825,3056,2909,-1201.63,-1235.54,209714
38384,0,0.0,0.0,209929,2898,2832,-919.69,-889.92,209817
38589,0,0.0,0.0,210031,2794,2743,-796.97,-759.4,209920
38589,0,0.0,0.0,210134,2859,2719,-508.48,-545.24,210022
38794,0,0.0,0.0,210236,2587,2487,-547.36,-555.59,210125
38794,0,0.0,0.0,210339,3708,3413,433.63,277.42,210227
101055,0,0.0,0.0,1309,15496,10891,241.34,-64.79,1196
101259,0,0.0,0.0,1416,15501,10885,170.98,-49.48,1304
101421,0,0.0,0.0,1519,15516,10885,128.56,-33.61,1407
101421,0,0.0,0.0,1623,15516,10890,102.45,-23.08,1510
101570,0,0.0,0.0,1725,15532,10892,82.49,-13.29,1613
101570,0,0.0,0.0,1828,15536,10880,68.22,-18.7,1715
101775,0,0.0,0.0,1931,15542,10882,52.0,-13.17,1819
101775,0,0.0,0.0,2034,15545,10887,38.08,-6.74,1921
102078,0,0.0,0.0,2137,15553,10895,35.68,0.15,2025
102078,0,0.0,0.0,2240,15549,10888,23.07,-2.66,2127
102079,0,0.0,0.0,2342,15563,10887,26.57,-3.87,2229
102283,0,0.0,0.0,2444,15573,10892,26.08,-0.59,2332
102488,0,0.0,0.0,2547,15568,10887,17.68,-2.31,2435
102488,0,0.0,0.0,2650,15575,10884,16.98,-3.86,2537
102693,0,0.0,0.0,2753,15575,10888,13.81,-0.0,2641
102693,0,0.0,0.0,2857,15580,10885,13.93,-3.24,2744
102898,0,0.0,0.0,2959,15592,10872,17.14,-11.73,2847
102899,0,0.0,0.0,3062,15593,10872,14.77,-9.96,2949
103103,0,0.0,0.0,3165,15601,10873,18.85,-7.22,3053
103104,0,0.0,0.0,3268,15603,10867,14.57,-9.45,3155
103308,0,0.0,0.0,3371,15605,10872,13.84,-3.78,3259
103308,0,0.0,0.0,3474,15608,10873,11.8,-0.52,3361
103512,0,0.0,0.0,3576,15609,10859,10.41,-10.01,3464
103512,0,0.0,0.0,3679,15617,10865,13.75,-2.41,3566
103621,0,0.0,0.0,3782,15616,10863,11.12,-6.55,3670
103621,0,0.0,0.0,3885,15609,10862,1.76,-4.25,3772
103923,0,0.0,0.0,3988,15616,10864,7.89,-2.73,3876
103923,0,0.0,0.0,4091,15627,10861,12.53,-3.4,3978
104028,0,0.0,0.0,4194,15627,10865,9.85,0.57,4082
104029,0,0.0,0.0,4297,15620,10860,3.72,-1.97,4184
104092,0,0.0,0.0,4400,15633,10866,11.29,2.55,4288
104233,0,0.0,0.0,4504,15624,10860,2.66,-1.54,4392
104537,0,0.0,0.0,4607,15634,10856,8.49,-3.28,4495
104537,0,0.0,0.0,4710,15632,10852,6.14,-6.28,4597
104741,0,0.0,0.0,4812,15630,10853,3.43,-5.78,4700
104742,0,0.0,0.0,4915,15631,10846,1.75,-8.69,4802
104947,0,0.0,0.0,5017,15644,10847,10.29,-6.24,4905
104947,0,0.0,0.0,5120,15654,10832,14.81,-15.07,5008
105151,0,0.0,0.0,5223,15656,10831,15.42,-12.38,5111
105151,0,0.0,0.0,5326,15657,10823,12.09,-16.0,5213
105317,0,0.0,0.0,5429,15660,10818,11.23,-16.37,5317
105318,0,0.0,0.0,5532,15676,10809,19.7,-18.36,5419
105560,0,0.0,0.0,5635,15686,10800,23.68,-19.58,5523
105560,0,0.0,0.0,5738,15691,10795,21.23,-19.15,5625
105765,0,0.0,0.0,5841,15695,10789,19.91,-19.39,5729
105766,0,0.0,0.0,5944,15701,10779,20.01,-22.85,5831
105970,0,0.0,0.0,6046,15718,10792,25.98,-7.27,5934
105970,0,0.0,0.0,6149,15716,10792,19.71,-5.95,6036
106175,0,0.0,0.0,6252,15725,10782,19.81,-9.25,6140
106176,0,0.0,0.0,6355,15732,10781,20.44,-8.0,6242
106380,0,0.0,0.0,6458,15732,10778,15.14,-7.99,6346
106381,0,0.0,0.0,6561,15736,10772,13.99,-10.16,6448
106585,0,0.0,0.0,6663,15743,10782,14.77,-2.57,6551
106585,0,0.0,0.0,6766,15741,10774,10.2,-6.77,6653
106790,0,0.0,0.0,6869,15737,10779,5.57,-1.56,6757
106790,0,0.0,0.0,6973,15743,10777,7.4,-2.63,6860
106994,0,0.0,0.0,7075,15741,10772,4.48,-4.35,6963
106994,0,0.0,0.0,7178,15747,10766,7.48,-9.55,7065
107301,0,0.0,0.0,7281,15764,10782,18.23,2.84,7169
107302,0,0.0,0.0,7384,15758,10776,12.38,-0.21,7271
107608,0,0.0,0.0,7486,15766,10770,14.19,-5.65,7374
107609,0,0.0,0.0,7589,15770,10774,14.27,0.36,7476
107609,0,0.0,0.0,7691,15768,10774,10.96,-0.35,7579
107609,0,0.0,0.0,7794,15774,10764,11.34,-6.29,7681
107814,0,0.0,0.0,7895,15774,10771,9.33,-1.23,7783
107814,0,0.0,0.0,7998,15782,10773,12.64,1.52,7885
108018,0,0.0,0.0,8100,15787,10767,14.45,-1.7,7988
108019,0,0.0,0.0,8203,15785,10764,8.85,-3.87,8090
108222,0,0.0,0.0,8305,15785,10760,8.33,-6.21,8193
108222,0,0.0,0.0,8408,15783,10771,4.45,2.35,8295
108427,0,0.0,0.0,8510,15790,10763,8.81,-2.13,8398
108427,0,0.0,0.0,8613,15786,10765,3.29,-1.14,8500
108590,0,0.0,0.0,8716,15791,10762,4.67,-2.79,8604
108590,0,0.0,0.0,8819,15786,10760,0.3,-3.69,8706
108839,0,0.0,0.0,8921,15785,10757,-0.69,-5.75,8809
108839,0,0.0,0.0,9024,15783,10760,-1.35,-2.96,8911
109042,0,0.0,0.0,9127,15787,10765,0.87,1.51,9015
109043,0,0.0,0.0,9230,15789,10765,1.45,1.9,9117
109247,0,0.0,0.0,9332,15789,10761,1.51,-1.06,9220
109247,0,0.0,0.0,9435,15798,10766,6.64,1.97,9322
109452,0,0.0,0.0,9538,15793,10765,2.8,1.1,9426
109452,0,0.0,0.0,9641,15802,10772,6.82,4.98,9528
109657,0,0.0,0.0,9744,15799,10765,2.35,1.37,9632
109657,0,0.0,0.0,9847,15800,10763,1.54,-1.41,9734
109862,0,0.0,0.0,9950,15799,10759,0.51,-2.9,9838
109862,0,0.0,0.0,10053,15803,10759,4.1,-3.15,9940
110067,0,0.0,0.0,10156,15810,10763,6.85,0.33,10044
110067,0,0.0,0.0,10259,15811,10756,5.89,-3.6,10146
110272,0,0.0,0.0,10361,15801,10759,-1.87,-2.34,10249
110272,0,0.0,0.0,10464,15811,10751,4.93,-6.38,10351
110475,0,0.0,0.0,10567,15809,10759,3.46,-0.88,10455
110476,0,0.0,0.0,10670,15812,10764,6.25,2.95,10557
110583,0,0.0,0.0,10772,15812,10761,2.29,0.58,10660
110583,0,0.0,0.0,10875,15822,10759,8.12,-0.6,10762
110872,0,0.0,0.0,10978,15816,10763,3.73,2.31,10866
110872,0,0.0,0.0,11081,15813,10768,-0.44,4.28,10968
111090,0,0.0,0.0,11183,15813,10763,-0.17,0.27,11071
111090,0,0.0,0.0,11286,15823,10757,5.76,-4.46,11173
111295,0,0.0,0.0,11389,15811,10765,-2.05,2.06,11277
111295,0,0.0,0.0,11492,15820,10764,2.76,2.14,11379
111499,0,0.0,0.0,11594,15820,10754,2.18,-4.9,11482
111500,0,0.0,0.0,11697,15820,10772,2.41,7.49,11584
111705,0,0.0,0.0,11799,15817,10767,0.32,4.07,11687
111705,0,0.0,0.0,11902,15822,10758,5.0,-1.34,11789
111909,0,0.0,0.0,12004,15824,10762,3.16,1.67,11892
111909,0,0.0,0.0,12107,15823,10765,2.3,2.34,11994
112114,0,0.0,0.0,12210,15823,10760,1.63,-0.62,12098
112114,0,0.0,0.0,12315,15820,10753,0.03,-5.42,12202
112319,0,0.0,0.0,12417,15819,10755,0.23,-4.02,12306
112319,0,0.0,0.0,12522,15821,10757,0.33,-2.45,12409
112523,0,0.0,0.0,12624,15826,10763,3.92,2.01,12512
112524,0,0.0,0.0,12727,15825,10756,4.57,-2.14,12614
112728,0,0.0,0.0,12829,15821,10763,-0.55,3.52,12717
112728,0,0.0,0.0,12932,15825,10756,2.68,-3.22,12819
112934,0,0.0,0.0,13035,15822,10759,-0.35,0.65,12923
112934,0,0.0,0.0,13139,15827,10755,2.49,-2.46,13026
113139,0,0.0,0.0,13241,15820,10753,-2.8,-2.66,13129
113139,0,0.0,0.0,13345,15825,10759,0.73,1.66,13232
113343,0,0.0,0.0,13447,15825,10761,0.43,2.9,13335
113343,0,0.0,0.0,13551,15828,10757,2.03,0.11,13438
113547,0,0.0,0.0,13653,15825,10759,-0.71,-0.22,13541
113547,0,0.0,0.0,13757,15825,10752,-0.31,-4.72,13644
113752,0,0.0,0.0,13859,15825,10760,-0.02,0.78,13747
113752,0,0.0,0.0,13962,15824,10753,-1.19,-3.59,13849
113958,0,0.0,0.0,14064,15828,10758,1.07,0.46,13952
113958,0,0.0,0.0,14167,15830,10760,2.17,0.61,14054
114163,0,0.0,0.0,14268,15826,10748,1.17,-7.62,14156
114163,0,0.0,0.0,14371,15834,10767,4.79,6.64,14258
114367,0,0.0,0.0,14473,15826,10757,-1.15,-1.98,14361
114367,0,0.0,0.0,14576,15834,10755,3.89,-2.39,14463
114571,0,0.0,0.0,14678,15832,10759,1.9,0.01,14566
114571,0,0.0,0.0,14783,15836,10755,2.86,-3.47,14670
114776,0,0.0,0.0,14885,15833,10754,0.78,-4.24,14773
114777,0,0.0,0.0,14988,15830,10758,-2.46,-0.2,14875
114981,0,0.0,0.0,15089,15834,10752,-0.28,-3.67,14977
114981,0,0.0,0.0,15192,15826,10755,-4.86,-2.42,15079
115186,0,0.0,0.0,15294,15833,10752,0.63,-3.68,15182
115186,0,0.0,0.0,15397,15836,10759,2.87,2.59,15284
115391,0,0.0,0.0,15499,15834,10753,1.73,-2.35,15387
115391,0,0.0,0.0,15602,15839,10751,4.41,-3.67,15489
115595,0,0.0,0.0,15704,15833,10760,-0.04,2.94,15592
115595,0,0.0,0.0,15807,15837,10770,1.34,9.31,15694
115800,0,0.0,0.0,15909,15828,10767,-4.28,7.29,15797
115800,0,0.0,0.0,16012,15836,10755,1.59,-2.18,15899
116005,0,0.0,0.0,16114,15837,10756,1.67,-0.36,16002
116006,0,0.0,0.0,16217,15828,10757,-3.5,-1.94,16104
116210,0,0.0,0.0,16320,15839,10757,3.31,0.76,16208
116211,0,0.0,0.0,16423,15839,10757,2.78,-0.23,16310
116414,0,0.0,0.0,16526,15837,10754,0.52,-0.98,16413
116415,0,0.0,0.0,16629,15841,10761,2.67,3.61,16516
116620,0,0.0,0.0,16731,15842,10752,3.76,-3.11,16618
116620,0,0.0,0.0,16834,15842,10747,3.41,-5.68,16721
116825,0,0.0,0.0,16936,15844,10751,4.06,-1.97,16824
116825,0,0.0,0.0,17039,15836,10751,-0.62,-2.04,16926
117030,0,0.0,0.0,17140,15840,10750,3.29,-1.39,17028
117031,0,0.0,0.0,17243,15837,10752,-2.65,0.32,17130
117237,0,0.0,0.0,17345,15834,10755,-3.96,0.44,17233
117237,0,0.0,0.0,17448,15835,10755,-2.28,0.58,17335
117439,0,0.0,0.0,17550,15837,10755,0.71,0.66,17438
117440,0,0.0,0.0,17653,15840,10750,0.95,-2.29,17540
117644,0,0.0,0.0,17755,15847,10756,5.67,0.94,17643
117645,0,0.0,0.0,17858,15844,10749,3.49,-4.58,17745
117785,0,0.0,0.0,17960,15839,10757,0.11,2.13,17848
117785,0,0.0,0.0,18063,15838,10750,-2.95,-4.35,17950
118053,0,0.0,0.0,18165,15846,10750,3.64,-3.67,18053
118053,0,0.0,0.0,18268,15840,10752,-0.95,-2.03,18155
118258,0,0.0,0.0,18370,15844,10756,1.56,1.95,18258
118258,0,0.0,0.0,18474,15843,10768,1.85,8.11,18361
118463,0,0.0,0.0,18576,15844,10753,1.74,-2.56,18464
118463,0,0.0,0.0,18679,15841,10751,-0.27,-4.07,18566
118667,0,0.0,0.0,18781,15851,10753,7.44,-1.75,18669
118668,0,0.0,0.0,18885,15840,10769,-2.53,10.94,18772
118872,0,0.0,0.0,18987,15845,10756,1.48,-0.53,18875
118873,0,0.0,0.0,19090,15850,10750,5.13,-4.29,18977
119077,0,0.0,0.0,19191,15842,10756,-2.24,1.2,19079
119078,0,0.0,0.0,19295,15852,10752,4.03,-0.76,19182
119283,0,0.0,0.0,19396,15842,10753,-1.64,-0.6,19284
119283,0,0.0,0.0,19499,15843,10749,-2.21,-3.21,19386
119487,0,0.0,0.0,19600,15845,10757,-0.75,3.06,19488
119487,0,0.0,0.0,19703,15854,10754,5.42,0.56,19590
119692,0,0.0,0.0,19805,15846,10751,-0.11,-1.2,19693
119692,0,0.0,0.0,19908,15845,10751,0.56,-1.57,19795
119897,0,0.0,0.0,20010,15845,10750,-0.9,-1.38,19898
119898,0,0.0,0.0,20113,15848,10756,1.76,2.95,20000
120102,0,0.0,0.0,20214,15849,10756,1.96,2.81,20102
120103,0,0.0,0.0,20317,15848,10753,-0.05,1.0,20204
120307,0,0.0,0.0,20419,15843,10750,-2.72,-1.27,20307
120307,0,0.0,0.0,20522,15845,10764,-0.85,7.82,20409
120511,0,0.0,0.0,20624,15843,10752,-2.08,-1.07,20512
120512,0,0.0,0.0,20727,15849,10749,1.73,-3.23,20614
120716,0,0.0,0.0,20829,15850,10744,2.27,-5.57,20717
120716,0,0.0,0.0,20932,15846,10752,0.05,1.27,20819
120921,0,0.0,0.0,21034,15835,10750,-9.94,-0.45,20922
120921,0,0.0,0.0,21137,15849,10753,1.32,1.61,21024
121127,0,0.0,0.0,21239,15855,10748,4.69,-2.35,21127
121127,0,0.0,0.0,21342,15848,10751,0.42,-0.07,21229
121338,0,0.0,0.0,21443,15856,10746,4.66,-3.1,21331
121339,0,0.0,0.0,21546,15852,10745,3.23,-4.52,21433
121535,0,0.0,0.0,21648,15851,10752,0.5,0.47,21536
121536,0,0.0,0.0,21751,15847,10749,-3.0,-0.6,21638
121740,0,0.0,0.0,21853,15861,10743,7.55,-3.49,21741
121741,0,0.0,0.0,21956,15852,10749,-1.16,-0.48,21843
121945,0,0.0,0.0,22058,15857,10749,3.12,-0.16,21946
121945,0,0.0,0.0,22161,15853,10749,0.53,0.33,22048
122150,0,0.0,0.0,22263,15848,10754,-2.19,3.65,22151
122150,0,0.0,0.0,22366,15846,10745,-3.9,-2.64,22253
122355,0,0.0,0.0,22467,15862,10749,5.9,-1.01,22355
122355,0,0.0,0.0,22570,15857,10751,1.31,1.17,22457
122559,0,0.0,0.0,22672,15852,10746,-1.58,-1.67,22560
122559,0,0.0,0.0,22775,15857,10742,1.8,-5.0,22662
122765,0,0.0,0.0,22877,15859,10749,4.66,-1.36,22765
122765,0,0.0,0.0,22981,15872,10745,11.62,-4.11,22868
122969,0,0.0,0.0,23082,15856,10746,0.17,-2.28,22970
122970,0,0.0,0.0,23185,15856,10747,0.93,-2.69,23072
123180,0,0.0,0.0,23287,15862,10744,3.66,-0.93,23175
123180,0,0.0,0.0,23390,15868,10750,6.03,1.16,23277
123379,0,0.0,0.0,23492,15860,10744,1.81,-2.29,23380
123379,0,0.0,0.0,23595,15855,10751,-1.07,1.89,23482
123584,0,0.0,0.0,23697,15857,10741,1.07,-5.93,23585
123584,0,0.0,0.0,23800,15864,10747,3.67,-1.01,23687
123788,0,0.0,0.0,23901,15867,10748,5.12,0.4,23789
123788,0,0.0,0.0,24004,15867,10746,4.2,-0.82,23891
123992,0,0.0,0.0,24105,15860,10753,0.05,3.86,23993
123993,0,0.0,0.0,24208,15861,10745,0.56,-2.55,24095
124100,0,0.0,0.0,24310,15853,10745,-5.31,-0.14,24198
124101,0,0.0,0.0,24413,15862,10733,2.46,-9.95,24300
124306,0,0.0,0.0,24515,15868,10755,6.49,6.58,24403
124306,0,0.0,0.0,24618,15853,10748,-3.16,1.42,24505
124607,0,0.0,0.0,24720,15864,10750,3.31,1.69,24608
124607,0,0.0,0.0,24823,15858,10741,-0.64,-3.83,24710
124812,0,0.0,0.0,24924,15866,10741,3.83,-3.23,24812
124812,0,0.0,0.0,25027,15864,10751,1.48,3.22,24914
125017,0,0.0,0.0,25128,15864,10749,2.47,2.45,25016
125018,0,0.0,0.0,25231,15862,10750,-0.03,3.49,25118
125221,0,0.0,0.0,25333,15864,10746,2.7,-0.18,25221
125221,0,0.0,0.0,25436,15860,10746,-0.39,-0.12,25323
125427,0,0.0,0.0,25538,15864,10747,2.1,0.12,25426
125427,0,0.0,0.0,25641,15865,10745,1.54,-0.67,25528
125631,0,0.0,0.0,25743,15863,10750,-0.04,2.16,25631
125631,0,0.0,0.0,25846,15860,10746,-1.81,-0.38,25733
125836,0,0.0,0.0,25947,15865,10737,1.71,-6.4,25835
125836,0,0.0,0.0,26050,15869,10745,6.9,0.59,25937
126041,0,0.0,0.0,26152,15863,10740,-0.61,-2.58,26040
126041,0,0.0,0.0,26255,15856,10747,-4.87,1.02,26142
126245,0,0.0,0.0,26357,15871,10742,6.61,-0.83,26244
126246,0,0.0,0.0,26460,15865,10746,1.86,1.37,26347
126451,0,0.0,0.0,26562,15861,10747,-1.77,1.14,26450
126451,0,0.0,0.0,26665,15866,10741,1.52,-2.21,26552
126655,0,0.0,0.0,26766,15864,10754,-0.59,6.68,26654
126655,0,0.0,0.0,26869,15861,10748,-2.86,2.92,26756
126860,0,0.0,0.0,26971,15865,10741,0.46,-3.86,26859
126861,0,0.0,0.0,27074,15866,10749,3.28,1.42,26961
127064,0,0.0,0.0,27175,15871,10745,6.36,0.34,27063
127065,0,0.0,0.0,27278,15874,10744,7.78,-0.9,27165
127373,0,0.0,0.0,27379,15862,10749,-0.84,3.37,27267
127373,0,0.0,0.0,27482,15861,10752,-1.95,3.39,27369
127679,0,0.0,0.0,27584,15862,10740,-1.58,-2.65,27472
127679,0,0.0,0.0,27687,15866,10733,1.85,-8.2,27574
127680,0,0.0,0.0,27789,15872,10742,4.6,-0.52,27677
127680,0,0.0,0.0,27892,15870,10746,4.0,2.23,27779
127884,0,0.0,0.0,27993,15868,10745,1.89,1.34,27881
127885,0,0.0,0.0,28096,15864,10744,-0.98,0.15,27983
128090,0,0.0,0.0,28197,15869,10741,2.58,-2.3,28085
128090,0,0.0,0.0,28301,15870,10741,3.5,-3.02,28188
128294,0,0.0,0.0,28403,15861,10747,-3.8,2.07,28291
128294,0,0.0,0.0,28506,15862,10735,-2.94,-5.27,28393
128499,0,0.0,0.0,28608,15864,10739,-1.18,-2.88,28496
128499,0,0.0,0.0,28711,15862,10743,-3.79,-1.12,28598
128703,0,0.0,0.0,28812,15863,10742,-1.71,-0.81,28700
128704,0,0.0,0.0,28915,15872,10746,4.4,2.72,28802
128909,0,0.0,0.0,29017,15876,10732,7.47,-6.61,28905
128909,0,0.0,0.0,29120,15868,10741,0.88,-0.44,29007
129113,0,0.0,0.0,29221,15871,10747,3.83,2.56,29109
129114,0,0.0,0.0,29324,15872,10747,2.59,2.74,29211
129317,0,0.0,0.0,29426,15866,10738,-0.65,-3.36,29314
129318,0,0.0,0.0,29529,15867,10744,-0.03,0.91,29416
129523,0,0.0,0.0,29630,15866,10749,0.73,3.78,29518
129523,0,0.0,0.0,29733,15872,10743,3.07,1.3,29620
129727,0,0.0,0.0,29835,15871,10737,2.77,-2.71,29723
129728,0,0.0,0.0,29938,15865,10745,-1.25,2.92,29825
129933,0,0.0,0.0,30040,15869,10745,0.94,3.49,29928
129933,0,0.0,0.0,30143,15865,10740,-2.09,-1.63,30030
130137,0,0.0,0.0,30244,15863,10744,-3.44,0.77,30132
130138,0,0.0,0.0,30347,15870,10738,1.33,-1.95,30234
130254,0,0.0,0.0,30449,15860,10745,-4.56,3.1,30337
130254,0,0.0,0.0,30553,15867,10742,0.98,1.02,30440
130451,0,0.0,0.0,30655,15866,10740,-0.3,-0.39,30543
130451,0,0.0,0.0,30758,15870,10742,2.75,0.96,30645
130752,0,0.0,0.0,30860,15870,10735,1.21,-4.98,30748
130752,0,0.0,0.0,30963,15866,10742,-2.5,-0.28,30850
130956,0,0.0,0.0,31065,15868,10745,0.55,4.41,30953
130956,0,0.0,0.0,31168,15868,10736,-0.01,-5.48,31055
131161,0,0.0,0.0,31270,15868,10752,0.57,5.56,31158
131162,0,0.0,0.0,31373,15870,10734,-0.1,-6.58,31260
131366,0,0.0,0.0,31475,15868,10742,-1.92,-0.54,31363
131366,0,0.0,0.0,31578,15875,10742,3.23,-1.13,31465
131570,0,0.0,0.0,31679,15870,10732,0.99,-6.69,31567
131571,0,0.0,0.0,31782,15869,10743,-1.29,1.06,31670
131776,0,0.0,0.0,31884,15877,10737,5.34,-2.22,31772
131776,0,0.0,0.0,31987,15874,10741,3.69,-0.05,31874
131980,0,0.0,0.0,32089,15876,10744,3.25,2.48,31976
131980,0,0.0,0.0,32192,15870,10747,-0.62,5.08,32079
132185,0,0.0,0.0,32294,15876,10750,2.17,5.14,32182
132185,0,0.0,0.0,32397,15867,10742,-4.15,0.87,32284
132389,0,0.0,0.0,32499,15874,10742,1.58,-2.02,32387
132390,0,0.0,0.0,32603,15869,10737,-1.53,-3.27,32490
132595,0,0.0,0.0,32704,15870,10741,-1.19,-0.55,32592
132595,0,0.0,0.0,32807,15865,10738,-3.66,-3.94,32694
132799,0,0.0,0.0,32909,15869,10741,-1.71,-1.23,32797
132800,0,0.0,0.0,33012,15869,10742,-1.6,0.87,32899
133005,0,0.0,0.0,33113,15881,10738,6.37,-2.5,33001
133005,0,0.0,0.0,33216,15871,10737,-1.25,-2.8,33103
133208,0,0.0,0.0,33317,15875,10749,0.35,6.12,33205
133209,0,0.0,0.0,33420,15875,10744,1.95,4.27,33307
133415,0,0.0,0.0,33522,15876,10745,2.22,1.1,33410
133415,0,0.0,0.0,33625,15873,10745,-0.02,2.81,33512
133619,0,0.0,0.0,33727,15876,10738,1.53,-3.31,33615
133620,0,0.0,0.0,33830,15882,10741,5.56,-1.36,33717
133823,0,0.0,0.0,33932,15866,10739,-6.16,-2.17,33820
133823,0,0.0,0.0,34035,15882,10740,4.57,-1.31,33922
133932,0,0.0,0.0,34137,15865,10736,-7.0,-2.65,34025
133932,0,0.0,0.0,34240,15871,10743,-2.01,3.39,34127
134234,0,0.0,0.0,34342,15885,10741,7.05,0.61,34230
134234,0,0.0,0.0,34445,15871,10734,-3.02,-2.97,34332
134438,0,0.0,0.0,34547,15866,10738,-6.31,-0.93,34435
134439,0,0.0,0.0,34650,15876,10739,1.8,0.56,34537
134643,0,0.0,0.0,34752,15878,10735,3.22,-1.73,34640
134643,0,0.0,0.0,34855,15873,10738,0.62,1.21,34742
134848,0,0.0,0.0,34957,15879,10742,3.83,2.82,34845
134848,0,0.0,0.0,35060,15878,10733,2.04,-2.62,34947
135053,0,0.0,0.0,35161,15878,10731,0.83,-4.44,35049
135053,0,0.0,0.0,35264,15882,10743,3.93,2.58,35151
135266,0,0.0,0.0,35366,15868,10739,-5.45,1.18,35254
135266,0,0.0,0.0,35469,15882,10738,4.91,-0.28,35356
135454,0,0.0,0.0,35571,15875,10735,0.36,-4.01,35459
135455,0,0.0,0.0,35674,15877,10742,-0.48,3.34,35561
135667,0,0.0,0.0,35776,15877,10744,0.38,3.88,35664
135668,0,0.0,0.0,35879,15878,10743,0.6,2.05,35766
135871,0,0.0,0.0,35981,15879,10745,2.1,4.09,35869
135871,0,0.0,0.0,36084,15879,10742,2.32,0.99,35971
136178,0,0.0,0.0,36185,15881,10735,3.59,-2.63,36073
136179,0,0.0,0.0,36288,15891,10743,9.07,1.34,36175
136492,0,0.0,0.0,36389,15883,10730,1.54,-5.93,36277
136492,0,0.0,0.0,36492,15880,10744,-1.86,3.04,36379
136492,0,0.0,0.0,36594,15877,10744,-2.72,4.71,36482
136492,0,0.0,0.0,36697,15879,10738,-1.67,-1.27,36584
136691,0,0.0,0.0,36798,15885,10744,4.24,2.19,36686
136692,0,0.0,0.0,36901,15882,10738,1.83,-1.44,36788
136895,0,0.0,0.0,37003,15883,10735,2.58,-3.6,36891
136895,0,0.0,0.0,37106,15887,10741,4.2,1.72,36993
137086,0,0.0,0.0,37208,15874,10736,-4.47,-1.2,37096
137086,0,0.0,0.0,37311,15878,10730,-1.28,-5.16,37198
137209,0,0.0,0.0,37413,15880,10736,-0.85,-1.32,37301
137209,0,0.0,0.0,37516,15880,10745,-0.52,4.9,37403
137510,0,0.0,0.0,37618,15881,10743,-1.4,6.17,37506
137510,0,0.0,0.0,37722,15886,10740,3.32,2.3,37609
137714,0,0.0,0.0,37824,15885,10739,3.87,0.72,37712
137714,0,0.0,0.0,37927,15885,10731,2.08,-4.11,37814
137919,0,0.0,0.0,38029,15891,10735,6.72,-1.32,37917
137919,0,0.0,0.0,38132,15879,10733,-3.03,-2.8,38019
138124,0,0.0,0.0,38234,15883,10724,-0.29,-6.4,38122
138125,0,0.0,0.0,38337,15874,10728,-5.68,-3.98,38224
138329,0,0.0,0.0,38438,15883,10738,1.05,3.5,38326
138330,0,0.0,0.0,38541,15885,10735,2.0,1.02,38428
138534,0,0.0,0.0,38643,15875,10736,-5.29,-0.51,38531
138534,0,0.0,0.0,38746,15880,10741,-1.76,3.22,38633
138739,0,0.0,0.0,38848,15892,10736,7.46,-0.45,38736
138739,0,0.0,0.0,38951,15881,10740,-1.02,2.1,38838
138944,0,0.0,0.0,39053,15885,10737,1.61,-0.32,38941
138944,0,0.0,0.0,39156,15893,10742,7.88,2.6,39043
139148,0,0.0,0.0,39257,15886,10733,1.25,-3.08,39145
139148,0,0.0,0.0,39360,15887,10732,2.55,-1.9,39247
139353,0,0.0,0.0,39461,15895,10736,6.75,1.0,39349
139353,0,0.0,0.0,39564,15888,10742,0.54,4.7,39451
139558,0,0.0,0.0,39666,15886,10745,-0.31,7.94,39554
139559,0,0.0,0.0,39769,15897,10735,7.5,0.49,39656
139763,0,0.0,0.0,39871,15901,10738,9.85,2.4,39759
139763,0,0.0,0.0,39974,15891,10738,2.11,2.23,39861
139967,0,0.0,0.0,40076,15888,10735,0.67,0.41,39964
139967,0,0.0,0.0,40179,15885,10733,-2.58,-2.7,40066
140173,0,0.0,0.0,40281,15886,10728,-0.46,-6.89,40169
140173,0,0.0,0.0,40384,15891,10732,2.07,-3.02,40271
140378,0,0.0,0.0,40485,15890,10740,1.63,3.43,40373
140378,0,0.0,0.0,40588,15887,10736,-2.46,-0.12,40475
140583,0,0.0,0.0,40690,15894,10731,2.67,-3.64,40578
140583,0,0.0,0.0,40793,15887,10736,-0.77,0.44,40680
140787,0,0.0,0.0,40894,15893,10725,2.67,-5.06,40782
140788,0,0.0,0.0,40997,15890,10735,0.54,1.71,40884
140992,0,0.0,0.0,41099,15892,10729,-0.58,-2.81,40987
140992,0,0.0,0.0,41202,15896,10735,2.42,1.31,41089
141197,0,0.0,0.0,41304,15890,10738,-2.26,3.37,41192
141197,0,0.0,0.0,41407,15891,10737,-1.48,2.96,41294
141401,0,0.0,0.0,41509,15893,10737,0.52,1.84,41397
141401,0,0.0,0.0,41612,15905,10734,8.41,-0.53,41499
141607,0,0.0,0.0,41713,15896,10729,1.48,-3.22,41601
141607,0,0.0,0.0,41816,15898,10727,1.57,-4.35,41703
141770,0,0.0,0.0,41917,15902,10736,4.81,2.54,41805
141770,0,0.0,0.0,42020,15897,10734,-0.13,1.37,41907
142016,0,0.0,0.0,42122,15894,10729,-1.94,-1.34,42010
142016,0,0.0,0.0,42225,15899,10737,1.45,2.68,42112
142220,0,0.0,0.0,42327,15894,10733,-2.0,-0.68,42215
142220,0,0.0,0.0,42430,15899,10719,1.32,-11.62,42317
142426,0,0.0,0.0,42532,15900,10725,1.8,-5.52,42420
142426,0,0.0,0.0,42635,15898,10731,-0.6,-0.7,42522
142631,0,0.0,0.0,42737,15899,10731,1.38,-1.46,42625
142631,0,0.0,0.0,42840,15912,10729,9.5,-1.46,42727
142770,0,0.0,0.0,42941,15907,10727,5.48,-3.52,42829
142770,0,0.0,0.0,43044,15902,10728,1.61,-2.3,42931
142827,0,0.0,0.0,43145,15900,10736,0.68,3.76,43033
142996,0,0.0,0.0,43248,15901,10734,0.46,2.04,43136
143245,0,0.0,0.0,43351,15895,10731,-4.17,0.17,43239
143245,0,0.0,0.0,43454,15896,10737,-3.04,4.62,43341
143655,0,0.0,0.0,43556,15905,10726,3.53,-2.72,43444
143655,0,0.0,0.0,43659,15907,10724,5.46,-5.05,43546
143655,0,0.0,0.0,43761,15899,10732,-0.03,0.11,43648
143861,0,0.0,0.0,43863,15902,10727,0.01,-2.09,43751
143861,0,0.0,0.0,43966,15900,10733,-0.81,1.36,43854
143861,0,0.0,0.0,44069,15905,10721,1.72,-5.25,43956
144064,0,0.0,0.0,44170,15897,10731,-3.86,1.38,44058
144064,0,0.0,0.0,44273,15896,10729,-4.15,-0.13,44160
144269,0,0.0,0.0,44375,15913,10725,7.76,-2.75,44263
144269,0,0.0,0.0,44478,15901,10726,-0.56,-2.39,44365
144473,0,0.0,0.0,44580,15911,10730,5.4,1.64,44468
144473,0,0.0,0.0,44683,15912,10730,5.23,0.69,44570
144678,0,0.0,0.0,44785,15908,10733,1.65,2.87,44673
144678,0,0.0,0.0,44888,15910,10724,1.35,-3.28,44775
144807,0,0.0,0.0,44990,15904,10723,-1.15,-5.37,44878
144807,0,0.0,0.0,45093,15912,10728,4.85,1.68,44980
145087,0,0.0,0.0,45195,15909,10733,2.09,1.85,45083
145088,0,0.0,0.0,45298,15902,10731,-4.61,1.95,45185
145292,0,0.0,0.0,45400,15905,10735,-0.67,3.39,45288
145292,0,0.0,0.0,45503,15907,10727,-0.46,-3.83,45390
145497,0,0.0,0.0,45604,15906,10724,-1.17,-3.74,45492
145497,0,0.0,0.0,45707,15902,10726,-2.99,-2.33,45594
145702,0,0.0,0.0,45809,15904,10730,-1.4,2.63,45697
145703,0,0.0,0.0,45912,15907,10723,0.34,-4.62,45799
145907,0,0.0,0.0,46014,15903,10733,-2.53,2.2,45902
145907,0,0.0,0.0,46117,15909,10727,2.67,-0.66,46004
146112,0,0.0,0.0,46218,15904,10727,-1.3,-3.52,46106
146112,0,0.0,0.0,46321,15905,10727,0.06,-1.92,46208
146224,0,0.0,0.0,46422,15910,10731,3.18,-0.26,46310
146224,0,0.0,0.0,46525,15905,10725,0.92,-4.09,46412
146522,0,0.0,0.0,46626,15909,10716,2.13,-9.29,46514
146522,0,0.0,0.0,46729,15910,10724,2.67,-2.17,46616
146726,0,0.0,0.0,46831,15914,10729,5.22,0.17,46719
146726,0,0.0,0.0,46934,15910,10729,2.03,-0.22,46821
146931,0,0.0,0.0,47036,15912,10730,2.95,1.63,46924
146932,0,0.0,0.0,47140,15908,10731,-0.68,1.47,47027
147136,0,0.0,0.0,47242,15905,10728,-3.34,0.55,47130
147136,0,0.0,0.0,47345,15909,10725,-0.02,-2.09,47232
147342,0,0.0,0.0,47447,15911,10722,1.96,-4.07,47334
147342,0,0.0,0.0,47550,15907,10729,-0.21,0.8,47437
147546,0,0.0,0.0,47652,15904,10726,-2.86,-1.03,47540
147546,0,0.0,0.0,47755,15903,10730,-2.87,2.22,47642
147751,0,0.0,0.0,47857,15913,10729,2.87,0.58,47744
147751,0,0.0,0.0,47960,15904,10726,-3.05,-0.2,47847
147956,0,0.0,0.0,48062,15911,10726,2.22,-0.25,47950
147956,0,0.0,0.0,48165,15905,10723,-1.96,-0.71,48052
148161,0,0.0,0.0,48266,15913,10722,3.92,-3.4,48154
148161,0,0.0,0.0,48369,15911,10728,2.17,1.71,48256
148364,0,0.0,0.0,48471,15907,10728,-3.26,0.66,48359
148364,0,0.0,0.0,48575,15917,10729,5.96,0.46,48462
148474,0,0.0,0.0,48677,15915,10732,2.37,3.09,48565
148475,0,0.0,0.0,48780,15911,10726,-0.64,-2.76,48667
148679,0,0.0,0.0,48881,15905,10723,-5.16,-3.05,48769
148679,0,0.0,0.0,48984,15914,10727,2.22,-3.03,48871
148882,0,0.0,0.0,49086,15909,10714,-0.7,-11.05,48974
148882,0,0.0,0.0,49189,15910,10728,-0.22,-0.13,49076
149184,0,0.0,0.0,49291,15911,10733,0.91,4.44,49179
149184,0,0.0,0.0,49394,15916,10726,4.25,0.09,49281
149388,0,0.0,0.0,49496,15913,10727,2.21,0.14,49384
149389,0,0.0,0.0,49599,15931,10731,14.46,1.88,49486
149594,0,0.0,0.0,49700,15906,10726,-4.62,-1.28,49588
149594,0,0.0,0.0,49803,15901,10729,-7.75,1.76,49690
149798,0,0.0,0.0,49904,15912,10726,1.33,-0.79,49792
149798,0,0.0,0.0,50007,15914,10725,2.27,-1.52,49894
150003,0,0.0,0.0,50109,15914,10720,2.31,-4.09,49997
150003,0,0.0,0.0,50212,15911,10726,0.22,-0.07,50099
150208,0,0.0,0.0,50314,15906,10728,-4.44,1.27,50202
150208,0,0.0,0.0,50417,15914,10728,2.75,0.43,50304
150414,0,0.0,0.0,50519,15902,10723,-7.07,-2.15,50407
150414,0,0.0,0.0,50622,15916,10733,2.41,5.98,50509
150617,0,0.0,0.0,50723,15913,10728,0.44,1.23,50611
150617,0,0.0,0.0,50826,15920,10722,4.97,-3.7,50713
150823,0,0.0,0.0,50928,15919,10728,3.98,1.39,50816
150823,0,0.0,0.0,51031,15914,10726,-1.39,-0.44,50918
151027,0,0.0,0.0,51133,15918,10725,4.3,-0.07,51021
151027,0,0.0,0.0,51236,15910,10724,-2.78,-0.65,51123
151232,0,0.0,0.0,51338,15915,10731,1.39,3.65,51226
151232,0,0.0,0.0,51441,15909,10724,-2.53,-0.87,51328
151436,0,0.0,0.0,51543,15916,10712,1.93,-8.59,51431
151436,0,0.0,0.0,51647,15912,10721,-1.26,-0.85,51534
151641,0,0.0,0.0,51749,15913,10723,-0.13,-1.06,51637
151641,0,0.0,0.0,51852,15905,10727,-4.25,1.56,51739
151846,0,0.0,0.0,51954,15913,10730,1.26,5.29,51842
151846,0,0.0,0.0,52057,15911,10723,-1.13,0.14,51944
152051,0,0.0,0.0,52159,15919,10726,4.34,1.41,52047
152052,0,0.0,0.0,52262,15914,10725,-1.27,0.58,52149
152256,0,0.0,0.0,52364,15922,10726,5.88,1.37,52252
152256,0,0.0,0.0,52467,15910,10726,-1.84,0.43,52354
152461,0,0.0,0.0,52569,15911,10723,-1.69,-0.89,52457
152461,0,0.0,0.0,52672,15920,10719,5.77,-4.68,52559
152665,0,0.0,0.0,52773,15917,10724,1.35,-0.83,52661
152665,0,0.0,0.0,52876,15916,10724,2.42,-2.39,52763
152870,0,0.0,0.0,52978,15927,10725,9.53,-0.1,52866
152870,0,0.0,0.0,53082,15915,10736,-2.79,6.43,52969
153075,0,0.0,0.0,53183,15906,10715,-5.62,-6.14,53071
153075,0,0.0,0.0,53286,15913,10726,-0.74,2.13,53173
153280,0,0.0,0.0,53387,15916,10725,1.32,2.57,53275
153280,0,0.0,0.0,53490,15915,10709,3.21,-10.82,53377
153409,0,0.0,0.0,53592,15913,10726,-0.23,0.43,53480
153409,0,0.0,0.0,53695,15922,10723,5.58,-0.19,53582
153591,0,0.0,0.0,53797,15910,10724,-2.54,1.73,53685
153591,0,0.0,0.0,53900,15912,10724,-0.2,1.29,53787
153798,0,0.0,0.0,54002,15912,10723,-1.66,-0.37,53890
153798,0,0.0,0.0,54106,15919,10718,2.93,-2.4,53993
154100,0,0.0,0.0,54208,15926,10729,6.86,4.87,54096
154100,0,0.0,0.0,54311,15912,10722,-2.43,-0.74,54198
154304,0,0.0,0.0,54413,15911,10724,-1.67,2.02,54301
154304,0,0.0,0.0,54516,15910,10720,-3.04,-1.47,54403
154509,0,0.0,0.0,54618,15918,10712,4.1,-6.26,54506
154509,0,0.0,0.0,54721,15909,10724,-2.75,0.18,54608
154714,0,0.0,0.0,54823,15917,10729,1.5,5.3,54711
154714,0,0.0,0.0,54926,15906,10731,-4.93,5.1,54813
154919,0,0.0,0.0,55028,15919,10724,4.41,0.91,54916
154920,0,0.0,0.0,55131,15911,10726,-0.56,1.24,55018
155066,0,0.0,0.0,55233,15918,10713,2.61,-8.11,55121
155067,0,0.0,0.0,55336,15916,10720,2.27,-1.59,55223
155234,0,0.0,0.0,55437,15910,10723,-2.41,-0.35,55325
155235,0,0.0,0.0,55540,15908,10726,-4.44,1.88,55428
155465,0,0.0,0.0,55643,15919,10720,5.5,-1.48,55531
155465,0,0.0,0.0,55747,15911,10728,-1.07,2.99,55634
155739,0,0.0,0.0,55849,15915,10719,2.07,-1.62,55737
155739,0,0.0,0.0,55952,15909,10721,-1.23,-1.4,55839
155906,0,0.0,0.0,56055,15913,10725,0.19,0.92,55943
155906,0,0.0,0.0,56158,15916,10717,2.1,-5.57,56045
156148,0,0.0,0.0,56260,15916,10723,1.88,-1.64,56148
156148,0,0.0,0.0,56363,15919,10722,3.49,-1.32,56250
156352,0,0.0,0.0,56465,15909,10718,-4.73,-3.5,56353
156352,0,0.0,0.0,56568,15922,10719,4.07,-2.08,56455
156557,0,0.0,0.0,56670,15916,10717,0.76,-3.83,56558
156557,0,0.0,0.0,56773,15914,10723,-0.92,0.27,56660
156761,0,0.0,0.0,56874,15917,10728,0.3,5.46,56762
156762,0,0.0,0.0,56977,15915,10721,0.76,-1.46,56864
156967,0,0.0,0.0,57079,15914,10725,0.21,1.92,56967
156967,0,0.0,0.0,57182,15931,10723,9.94,0.57,57069
157172,0,0.0,0.0,57284,15913,10714,-3.11,-5.98,57172
157172,0,0.0,0.0,57387,15913,10719,-3.36,-2.57,57274
157376,0,0.0,0.0,57489,15916,10720,0.61,-1.4,57377
157376,0,0.0,0.0,57592,15912,10724,-2.83,0.92,57479
157581,0,0.0,0.0,57693,15921,10724,3.04,0.44,57581
157581,0,0.0,0.0,57796,15915,10724,-0.79,2.29,57683
157786,0,0.0,0.0,57897,15916,10721,-0.68,0.2,57785
157786,0,0.0,0.0,58000,15914,10717,-0.91,-3.37,57887
157990,0,0.0,0.0,58102,15923,10722,4.98,0.76,57990
157990,0,0.0,0.0,58205,15916,10717,-0.15,-2.9,58092
158195,0,0.0,0.0,58307,15916,10719,-1.45,-0.76,58195
158196,0,0.0,0.0,58410,15918,10723,0.84,1.41,58297
158400,0,0.0,0.0,58512,15921,10721,3.46,1.55,58400
158400,0,0.0,0.0,58615,15913,10722,-1.7,0.21,58502
158605,0,0.0,0.0,58716,15919,10729,2.17,4.89,58604
158606,0,0.0,0.0,58819,15922,10728,2.07,4.05,58706
158810,0,0.0,0.0,58921,15918,10724,-0.02,1.1,58809
158810,0,0.0,0.0,59024,15922,10714,2.17,-5.92,58911
159014,0,0.0,0.0,59126,15916,10719,-1.08,-2.34,59014
159014,0,0.0,0.0,59229,15920,10723,0.88,0.86,59116
159219,0,0.0,0.0,59331,15910,10725,-3.56,1.39,59219
159219,0,0.0,0.0,59434,15921,10721,2.07,0.04,59321
159326,0,0.0,0.0,59536,15917,10728,-0.36,5.35,59424
159327,0,0.0,0.0,59639,15919,10722,1.36,-1.21,59526
159530,0,0.0,0.0,59741,15918,10721,-0.49,-0.11,59629
159531,0,0.0,0.0,59844,15919,10724,1.06,1.76,59731
159731,0,0.0,0.0,59947,15921,10723,1.52,1.23,59835
160011,0,0.0,0.0,60050,15931,10721,8.66,0.1,59938
160011,0,0.0,0.0,60153,15914,10720,-4.38,-1.53,60041
160011,0,0.0,0.0,60256,15923,10716,2.13,-3.73,60143
160145,0,0.0,0.0,60357,15912,10717,-6.1,-2.67,60245
160145,0,0.0,0.0,60460,15913,10721,-4.31,-0.09,60347
160221,0,0.0,0.0,60562,15913,10718,-3.73,-1.36,60450
160328,0,0.0,0.0,60669,15919,10721,0.57,1.4,60557
160555,0,0.0,0.0,60776,15919,10716,1.25,-2.53,60664
160556,0,0.0,0.0,60879,15909,10715,-5.41,-1.13,60766
160760,0,0.0,0.0,60980,15914,10720,-2.19,2.41,60868
160760,0,0.0,0.0,61083,15924,10720,4.62,1.46,60970
160844,0,0.0,0.0,61185,15916,10717,-1.66,-1.44,61073
160951,0,0.0,0.0,61291,15921,10722,5.38,1.1,61179
161171,0,0.0,0.0,61398,15913,10713,-4.09,-4.05,61286
161171,0,0.0,0.0,61501,15919,10723,1.07,2.15,61388
161264,0,0.0,0.0,61603,15916,10719,-1.71,1.01,61491
161373,0,0.0,0.0,61710,15918,10729,0.38,6.63,61598
161484,0,0.0,0.0,61821,15915,10718,-0.36,-2.06,61709
161591,0,0.0,0.0,61931,15917,10715,0.51,-4.56,61819
161786,0,0.0,0.0,62038,15917,10717,0.11,-3.14,61926
161834,0,0.0,0.0,62141,15915,10721,-2.09,0.68,62029
161905,0,0.0,0.0,62244,15922,10710,2.77,-8.09,62132
162009,0,0.0,0.0,62350,10721,10726,-3498.8,4.02,62238
162496,0,0.0,0.0,62462,15921,10719,379.85,-0.84,62350
162496,0,0.0,0.0,62566,15917,10721,321.23,-0.79,62454
162496,0,0.0,0.0,62669,15919,10719,253.78,-1.29,62556
162700,0,0.0,0.0,62772,15918,10715,172.32,-3.52,62659
162701,0,0.0,0.0,62875,15916,10727,116.07,4.45,62762
162905,0,0.0,0.0,62978,15915,10720,87.91,-1.27,62866
162906,0,0.0,0.0,63081,15920,10714,64.15,-4.86,62968
163111,0,0.0,0.0,63183,15915,10727,47.06,5.81,63071
163111,0,0.0,0.0,63287,15909,10725,28.96,2.28,63174
163316,0,0.0,0.0,63390,15919,10720,26.33,-1.18,63278
163316,0,0.0,0.0,63493,15924,10726,21.71,2.56,63380
163520,0,0.0,0.0,63596,15924,10719,17.35,-1.48,63484
163520,0,0.0,0.0,63699,15915,10711,7.81,-6.41,63586
163725,0,0.0,0.0,63801,15916,10714,5.84,-3.26,63689
163726,0,0.0,0.0,63904,15917,10719,5.0,1.29,63791
163931,0,0.0,0.0,64007,15918,10719,3.46,0.11,63895
163931,0,0.0,0.0,64110,15915,10711,1.69,-6.03,63997
164135,0,0.0,0.0,64213,15914,10717,-0.35,-1.13,64101
164135,0,0.0,0.0,64316,15919,10717,2.43,-1.24,64203
164340,0,0.0,0.0,64418,15920,10722,2.01,2.67,64306
164340,0,0.0,0.0,64521,15925,10723,5.69,1.98,64408
164647,0,0.0,0.0,64623,15914,10722,-2.67,1.6,64511
164647,0,0.0,0.0,64726,15924,10719,3.25,-0.18,64613
164953,0,0.0,0.0,64829,15928,10718,4.88,0.12,64717
164954,0,0.0,0.0,64932,15926,10716,3.05,-3.63,64819
164954,0,0.0,0.0,65034,15916,10719,-4.58,-0.06,64922
164954,0,0.0,0.0,65137,15923,10717,1.18,-2.76,65024
165159,0,0.0,0.0,65238,15917,10712,-1.12,-5.7,65126
165159,0,0.0,0.0,65341,15923,10714,3.2,-3.29,65228
165363,0,0.0,0.0,65443,15918,10720,-2.48,1.8,65331
165364,0,0.0,0.0,65546,15921,10717,0.09,-0.43,65433
165568,0,0.0,0.0,65649,15919,10715,-0.7,-2.27,65537
165568,0,0.0,0.0,65752,15926,10718,3.6,-1.38,65639
165876,0,0.0,0.0,65854,15920,10715,1.44,-3.06,65742
165876,0,0.0,0.0,65957,15907,10729,-6.01,9.26,65844
166183,0,0.0,0.0,66060,15921,10739,-0.86,13.67,65948
166184,0,0.0,0.0,66163,15974,10734,36.99,7.02,66050
166184,0,0.0,0.0,66266,15968,10738,37.13,6.53,66154
166184,0,0.0,0.0,66369,15949,10727,13.75,-2.98,66256
166378,0,0.0,0.0,66471,15946,10723,6.5,-6.43,66359
166378,0,0.0,0.0,66574,15953,10723,8.7,-6.71,66461
166592,0,0.0,0.0,66677,15947,10726,1.91,-0.53,66565
166592,0,0.0,0.0,66780,15955,10732,5.36,0.97,66667
166797,0,0.0,0.0,66883,15955,10738,2.58,6.85,66771
166797,0,0.0,0.0,66986,15950,10743,-0.15,7.33,66873
167002,0,0.0,0.0,67089,15956,10745,0.73,8.97,66977
167002,0,0.0,0.0,67192,15948,10740,-2.99,3.03,67079
167376,0,0.0,0.0,67295,15950,10744,-1.44,4.49,67183
167376,0,0.0,0.0,67398,15949,10747,-2.13,3.87,67285
167376,0,0.0,0.0,67501,15952,10744,1.74,2.39,67389
167376,0,0.0,0.0,67604,15951,10742,-1.17,0.19,67491
167519,0,0.0,0.0,67705,15953,10737,1.4,-5.97,67593
167519,0,0.0,0.0,67808,15966,10728,9.85,-9.49,67695
167822,0,0.0,0.0,67910,15980,10720,18.49,-15.55,67798
167822,0,0.0,0.0,68013,15970,10712,8.39,-18.48,67900
168026,0,0.0,0.0,68115,15974,10709,10.3,-14.9,68003
168027,0,0.0,0.0,68218,15957,10715,-3.63,-7.91,68105
168231,0,0.0,0.0,68320,15969,10711,3.18,-7.18,68208
168232,0,0.0,0.0,68423,15973,10709,5.26,-7.21,68310
168338,0,0.0,0.0,68526,15970,10713,2.11,-5.29,68414
168338,0,0.0,0.0,68629,15966,10714,-2.06,-2.18,68516
168845,0,0.0,0.0,68731,15969,10713,-0.35,-2.02,68619
168845,0,0.0,0.0,68835,15964,10717,-3.23,1.06,68723
168845,0,0.0,0.0,68939,15967,10723,0.36,5.6,68827
168845,0,0.0,0.0,69043,15973,10715,3.94,0.44,68930
169051,0,0.0,0.0,69145,15975,10712,4.04,-3.39,69033
169051,0,0.0,0.0,69249,15974,10709,3.47,-4.4,69136
169254,0,0.0,0.0,69351,15969,10705,-1.74,-7.65,69239
169255,0,0.0,0.0,69454,15971,10724,0.15,5.98,69341
169460,0,0.0,0.0,69556,15980,10714,7.04,0.94,69444
169460,0,0.0,0.0,69659,15973,10716,1.44,1.25,69546
169664,0,0.0,0.0,69761,15979,10707,3.78,-5.42,69649
169664,0,0.0,0.0,69865,15984,10711,7.1,-2.76,69752
169870,0,0.0,0.0,69967,15977,10708,2.02,-3.23,69855
169870,0,0.0,0.0,70071,15967,10712,-4.52,-1.7,69958
170074,0,0.0,0.0,70173,15969,10715,-2.81,-0.0,70061
170075,0,0.0,0.0,70277,15973,10707,-0.33,-3.51,70164
170185,0,0.0,0.0,70380,15976,10710,2.08,-1.6,70267
170185,0,0.0,0.0,70483,15979,10710,5.24,-1.42,70370
170484,0,0.0,0.0,70585,15975,10704,0.44,-5.41,70473
170484,0,0.0,0.0,70688,15978,10712,3.14,0.53,70575
170603,0,0.0,0.0,70790,15975,10718,1.15,4.21,70678
170603,0,0.0,0.0,70894,15965,10719,-6.15,4.92,70781
170894,0,0.0,0.0,70996,15972,10706,-1.06,-5.41,70884
170894,0,0.0,0.0,71099,15974,10713,1.56,-0.1,70986
171098,0,0.0,0.0,71201,15980,10720,5.22,6.89,71089
171098,0,0.0,0.0,71305,15976,10708,1.95,-2.28,71192
171304,0,0.0,0.0,71407,15977,10706,2.36,-4.61,71295
171304,0,0.0,0.0,71510,15979,10711,3.45,-0.66,71397
171508,0,0.0,0.0,71613,15964,10712,-8.61,-0.61,71501
171508,0,0.0,0.0,71716,15981,10712,4.58,-0.76,71603
171713,0,0.0,0.0,71818,15989,10709,9.53,-0.67,71706
171713,0,0.0,0.0,71921,15979,10709,0.17,-1.06,71808
171917,0,0.0,0.0,72023,15973,10708,-4.45,-3.37,71911
171918,0,0.0,0.0,72126,15975,10715,-0.89,2.48,72013
172122,0,0.0,0.0,72228,15973,10716,-2.02,3.22,72116
172123,0,0.0,0.0,72331,15978,10706,1.47,-3.44,72218
172273,0,0.0,0.0,72432,15977,10717,1.59,3.51,72320
172274,0,0.0,0.0,72535,15976,10714,0.08,2.1,72422
172532,0,0.0,0.0,72636,15976,10710,0.31,-2.04,72524
172532,0,0.0,0.0,72739,15971,10717,-3.91,3.95,72626
172737,0,0.0,0.0,72841,15980,10711,2.59,-2.02,72729
172737,0,0.0,0.0,72944,15975,10710,-1.56,-1.55,72831
172942,0,0.0,0.0,73046,15982,10714,3.19,0.03,72934
172942,0,0.0,0.0,73149,15971,10710,-5.2,-1.88,73036
173050,0,0.0,0.0,73250,15976,10710,-2.76,-1.87,73138
173051,0,0.0,0.0,73353,15977,10710,0.07,-1.98,73240
173351,0,0.0,0.0,73454,15971,10708,-3.91,-3.29,73342
173351,0,0.0,0.0,73557,15976,10719,0.56,5.33,73444
173555,0,0.0,0.0,73659,15984,10710,4.98,-0.22,73547
173555,0,0.0,0.0,73762,15991,10706,8.53,-5.7,73649
173761,0,0.0,0.0,73864,15980,10712,1.47,0.56,73752
173762,0,0.0,0.0,73967,15983,10715,2.48,1.71,73854
173966,0,0.0,0.0,74069,15986,10714,4.64,1.64,73957
173967,0,0.0,0.0,74172,15980,10708,1.27,-3.19,74059
174170,0,0.0,0.0,74273,15982,10710,0.62,-2.56,74161
174170,0,0.0,0.0,74376,15984,10707,1.95,-3.28,74263
174341,0,0.0,0.0,74478,15979,10711,-1.46,0.94,74366
174341,0,0.0,0.0,74581,15980,10717,-0.69,3.46,74468
174580,0,0.0,0.0,74683,15976,10711,-4.19,-0.7,74571
174581,0,0.0,0.0,74786,15984,10712,2.69,-0.78,74673
174785,0,0.0,0.0,74888,15979,10718,-2.22,5.45,74776
174785,0,0.0,0.0,74991,15975,10707,-5.3,-4.48,74878
174890,0,0.0,0.0,75093,15978,10714,-3.15,1.2,74981
174891,0,0.0,0.0,75196,15982,10702,1.26,-8.18,75083
175195,0,0.0,0.0,75298,15971,10717,-6.7,0.81,75186
175195,0,0.0,0.0,75401,15976,10709,-1.74,-4.39,75288
175400,0,0.0,0.0,75502,15973,10715,-5.06,1.56,75390
175400,0,0.0,0.0,75605,15984,10713,3.87,-0.43,75492
175604,0,0.0,0.0,75707,15980,10708,0.06,-3.29,75595
175604,0,0.0,0.0,75810,15981,10716,0.34,3.18,75697
175809,0,0.0,0.0,75911,15977,10715,-0.92,2.5,75799
175809,0,0.0,0.0,76014,15987,10701,4.79,-7.74,75901
176013,0,0.0,0.0,76116,15988,10706,5.02,-3.38,76004
176014,0,0.0,0.0,76220,15983,10711,3.61,0.58,76107
176219,0,0.0,0.0,76322,15979,10706,-0.7,-2.55,76210
176219,0,0.0,0.0,76425,15982,10711,0.26,2.3,76312
176423,0,0.0,0.0,76527,15975,10706,-4.35,-1.98,76415
176423,0,0.0,0.0,76630,15968,10712,-7.79,2.18,76517
176628,0,0.0,0.0,76732,15988,10715,6.51,3.02,76620
176628,0,0.0,0.0,76835,15978,10707,-1.92,-0.85,76722
176833,0,0.0,0.0,76937,15981,10708,-0.82,-1.23,76825
176833,0,0.0,0.0,77040,15987,10708,4.96,-1.05,76927
177038,0,0.0,0.0,77142,15987,10712,3.16,2.7,77030
177038,0,0.0,0.0,77245,15984,10713,2.37,2.59,77132
177242,0,0.0,0.0,77347,15976,10706,-2.43,-1.35,77235
177242,0,0.0,0.0,77450,15974,10712,-4.33,0.96,77337
177447,0,0.0,0.0,77552,15983,10703,2.69,-4.61,77440
177447,0,0.0,0.0,77655,15980,10709,0.15,0.17,77542
177652,0,0.0,0.0,77757,15982,10712,2.32,2.61,77645
177652,0,0.0,0.0,77860,15976,10708,-1.89,-1.43,77748
177857,0,0.0,0.0,77962,15984,10710,2.69,-0.18,77850
177857,0,0.0,0.0,78065,15982,10707,0.85,-1.46,77952
178062,0,0.0,0.0,78168,15981,10708,-1.74,-1.72,78055
178062,0,0.0,0.0,78271,15983,10713,-0.31,3.31,78158
178267,0,0.0,0.0,78373,15968,10702,-9.95,-5.5,78261
178267,0,0.0,0.0,78476,15983,10709,2.7,1.25,78363
178472,0,0.0,0.0,78578,15977,10707,0.14,-0.94,78466
178472,0,0.0,0.0,78681,15981,10714,1.48,2.74,78568
178619,0,0.0,0.0,78782,15986,10713,3.08,2.06,78670
178620,0,0.0,0.0,78885,15978,10712,-3.52,1.44,78772
178881,0,0.0,0.0,78987,15984,10707,1.25,-1.8,78875
178881,0,0.0,0.0,79090,15992,10710,6.96,0.26,78977
179086,0,0.0,0.0,79192,15983,10711,-0.32,1.01,79080
179086,0,0.0,0.0,79295,15985,10713,1.92,3.43,79182
179290,0,0.0,0.0,79396,15976,10714,-3.48,2.08,79284
179290,0,0.0,0.0,79499,15984,10717,0.92,4.07,79386
179495,0,0.0,0.0,79601,15983,10706,0.29,-3.13,79489
179496,0,0.0,0.0,79704,15984,10710,0.02,-0.65,79591
179700,0,0.0,0.0,79806,15976,10705,-3.31,-2.61,79694
179700,0,0.0,0.0,79909,15978,10707,-2.24,-1.68,79796
179904,0,0.0,0.0,80010,15984,10721,2.9,7.47,79898
179904,0,0.0,0.0,80113,15981,10702,0.19,-5.44,80000
180109,0,0.0,0.0,80215,15984,10706,1.8,-2.56,80103
180109,0,0.0,0.0,80318,15976,10712,-4.16,1.81,80205
180315,0,0.0,0.0,80420,15987,10712,4.49,1.74,80308
180315,0,0.0,0.0,80523,15983,10710,0.68,-0.31,80410
180518,0,0.0,0.0,80625,15983,10706,0.76,-2.98,80513
180519,0,0.0,0.0,80728,15980,10703,-2.8,-4.08,80615
180723,0,0.0,0.0,80829,15979,10716,-1.97,4.66,80717
180723,0,0.0,0.0,80932,15984,10706,1.94,-2.08,80819
180929,0,0.0,0.0,81034,15986,10708,3.75,0.37,80922
180929,0,0.0,0.0,81137,15989,10703,4.13,-3.24,81024
181133,0,0.0,0.0,81239,15977,10706,-3.89,-1.96,81127
181133,0,0.0,0.0,81342,15995,10707,8.01,-1.8,81229
181243,0,0.0,0.0,81444,15988,10709,2.57,1.14,81332
181244,0,0.0,0.0,81547,15987,10708,1.67,-0.08,81434
181543,0,0.0,0.0,81649,15992,10712,3.24,2.0,81537
181543,0,0.0,0.0,81753,15985,10708,-0.96,-1.09,81640
181748,0,0.0,0.0,81855,15979,10716,-4.4,4.13,81743
181748,0,0.0,0.0,81958,15980,10705,-2.33,-3.74,81845
181953,0,0.0,0.0,82060,15981,10711,-2.92,1.41,81948
181954,0,0.0,0.0,82163,15990,10706,4.73,-0.85,82050
182158,0,0.0,0.0,82265,15981,10711,0.52,0.21,82153
182158,0,0.0,0.0,82368,15984,10703,-0.22,-4.13,82255
182265,0,0.0,0.0,82469,15990,10713,3.64,3.12,82357
182265,0,0.0,0.0,82572,15980,10707,-2.79,-1.93,82459
182568,0,0.0,0.0,82674,15988,10705,3.77,-2.63,82562
182568,0,0.0,0.0,82777,15987,10703,1.58,-2.76,82664
182771,0,0.0,0.0,82878,15987,10704,2.11,-3.34,82766
182772,0,0.0,0.0,82981,15984,10711,0.35,3.08,82868
182976,0,0.0,0.0,83083,15984,10715,-0.58,5.5,82971
182977,0,0.0,0.0,83186,15987,10703,1.69,-2.88,83073
183181,0,0.0,0.0,83288,15989,10695,2.53,-8.08,83176
183181,0,0.0,0.0,83391,15986,10703,-0.01,-2.23,83278
183291,0,0.0,0.0,83492,15985,10712,0.64,4.6,83380
183292,0,0.0,0.0,83595,15987,10702,2.03,-3.7,83482
183387,0,0.0,0.0,83697,15980,10711,-1.87,1.3,83585
183592,0,0.0,0.0,83803,15983,10703,-2.42,-1.36,83691
183798,0,0.0,0.0,83906,15983,10707,-1.27,-0.27,83794
183798,0,0.0,0.0,84009,15989,10707,2.5,-0.5,83896
184001,0,0.0,0.0,84111,15986,10707,-0.38,0.83,83999
184002,0,0.0,0.0,84215,15981,10705,-3.12,-0.71,84102
184205,0,0.0,0.0,84317,15984,10709,-0.98,3.33,84205
184206,0,0.0,0.0,84420,15982,10703,-2.86,-2.22,84307
184364,0,0.0,0.0,84522,15983,10700,-0.9,-4.98,84410
184365,0,0.0,0.0,84625,15981,10711,-2.58,2.85,84512
184615,0,0.0,0.0,84726,15983,10706,-0.35,-1.53,84614
184615,0,0.0,0.0,84829,15986,10707,2.07,-0.99,84716
184820,0,0.0,0.0,84931,15981,10703,-0.68,-3.05,84819
184821,0,0.0,0.0,85034,15996,10707,8.88,1.51,84921
185025,0,0.0,0.0,85136,15984,10708,-1.01,2.05,85024
185025,0,0.0,0.0,85239,15981,10708,-3.0,1.28,85126
185131,0,0.0,0.0,85340,15979,10706,-3.98,-0.66,85228
185132,0,0.0,0.0,85443,15984,10706,0.64,-0.52,85330
185437,0,0.0,0.0,85545,15994,10707,5.44,-0.67,85433
185438,0,0.0,0.0,85648,15988,10702,1.22,-3.15,85535
185639,0,0.0,0.0,85750,15991,10705,4.66,-1.08,85638
185639,0,0.0,0.0,85853,15987,10702,1.03,-1.91,85740
185844,0,0.0,0.0,85954,15996,10702,7.62,-1.98,85842
185845,0,0.0,0.0,86057,15983,10712,-2.32,3.67,85944
186050,0,0.0,0.0,86159,15983,10703,-2.94,-2.41,86047
186050,0,0.0,0.0,86262,15989,10706,2.91,0.02,86149
186183,0,0.0,0.0,86364,15977,10705,-5.55,-0.97,86252
186183,0,0.0,0.0,86467,15977,10711,-5.77,3.51,86354
186362,0,0.0,0.0,86569,15982,10712,-0.66,4.52,86457
186362,0,0.0,0.0,86672,15984,10705,0.45,-0.49,86559
186566,0,0.0,0.0,86773,15983,10708,-1.03,1.91,86661
186566,0,0.0,0.0,86876,15982,10701,-0.7,-1.91,86763
186770,0,0.0,0.0,86978,15984,10705,0.98,-0.38,86866
186770,0,0.0,0.0,87081,15988,10702,2.18,-1.93,86968
186975,0,0.0,0.0,87183,15982,10699,-2.25,-4.9,87071
186975,0,0.0,0.0,87286,15989,10698,2.04,-4.93,87173
187180,0,0.0,0.0,87388,15984,10697,0.59,-5.2,87276
187180,0,0.0,0.0,87491,15994,10707,7.17,2.93,87378
187256,0,0.0,0.0,87593,15980,10703,-2.45,0.74,87481
187386,0,0.0,0.0,87701,15985,10702,-0.87,-1.29,87589
187465,0,0.0,0.0,87804,15986,10703,0.68,-0.6,87692
187574,0,0.0,0.0,87910,15985,10695,-1.01,-6.02,87798
187685,0,0.0,0.0,88019,15989,10707,1.64,1.97,87907
187791,0,0.0,0.0,88127,15983,10705,-1.35,-0.15,88015
187899,0,0.0,0.0,88237,15985,10702,-0.55,-3.39,88125
188008,0,0.0,0.0,88345,15987,10701,1.74,-4.14,88233
188303,0,0.0,0.0,88452,15983,10700,-1.66,-2.83,88340
188507,0,0.0,0.0,88555,15986,10714,1.86,5.68,88443
188507,0,0.0,0.0,88658,15983,10713,-0.71,3.91,88545
188712,0,0.0,0.0,88761,15984,10700,-2.11,-5.42,88649
188712,0,0.0,0.0,88864,15977,10708,-5.58,1.89,88751
188917,0,0.0,0.0,88966,15980,10724,-3.86,12.19,88854
188917,0,0.0,0.0,89069,15979,10725,-3.64,12.98,88956
189122,0,0.0,0.0,89171,15967,10725,-10.57,9.84,89059
189122,0,0.0,0.0,89274,15978,10735,-1.03,13.56,89161
189325,0,0.0,0.0,89376,15978,10731,-0.44,8.8,89264
189325,0,0.0,0.0,89479,15976,10729,-1.63,4.94,89366
189531,0,0.0,0.0,89582,15976,10742,-0.41,12.73,89470
189531,0,0.0,0.0,89685,15969,10725,-5.29,-0.19,89572
189736,0,0.0,0.0,89788,15990,10734,9.38,4.94,89676
189736,0,0.0,0.0,89891,15977,10726,1.06,-1.11,89778
189940,0,0.0,0.0,89994,15990,10736,8.56,5.1,89882
189940,0,0.0,0.0,90097,15995,10729,9.78,-1.23,89984
190144,0,0.0,0.0,90199,15975,10732,-5.65,2.39,90086
190145,0,0.0,0.0,90312,15977,10741,-2.76,5.62,90200
190254,0,0.0,0.0,90414,15974,10744,-2.35,7.69,90302
190255,0,0.0,0.0,90517,15991,10735,8.83,-0.71,90404
190555,0,0.0,0.0,90619,15979,10748,-1.61,8.67,90507
190555,0,0.0,0.0,90722,15981,10741,-0.81,1.99,90609
190759,0,0.0,0.0,90824,15994,10748,7.77,6.79,90712
190759,0,0.0,0.0,90927,15988,10738,1.59,-1.49,90814
190964,0,0.0,0.0,91030,15990,10737,2.31,-1.83,90918
190965,0,0.0,0.0,91133,16001,10748,8.55,4.78,91020
191168,0,0.0,0.0,91235,15995,10742,2.83,1.15,91123
191169,0,0.0,0.0,91338,15997,10758,5.18,12.25,91225
191374,0,0.0,0.0,91441,15998,10749,3.19,6.45,91329
191374,0,0.0,0.0,91544,15997,10751,2.47,3.12,91431
191544,0,0.0,0.0,91646,15995,10760,-0.25,10.06,91534
191544,0,0.0,0.0,91749,15990,10757,-4.04,5.02,91636
191686,0,0.0,0.0,91852,15996,10760,1.19,5.57,91740
191686,0,0.0,0.0,91955,16003,10766,4.1,7.02,91842
191987,0,0.0,0.0,92058,15998,10757,1.44,0.95,91946
191988,0,0.0,0.0,92161,16013,10766,9.75,6.16,92048
192192,0,0.0,0.0,92263,16018,10766,13.4,6.33,92151
192193,0,0.0,0.0,92366,16015,10762,9.85,0.08,92253
192397,0,0.0,0.0,92469,16019,10764,10.63,1.07,92357
192398,0,0.0,0.0,92572,16027,10761,14.15,-0.91,92459
192510,0,0.0,0.0,92675,16031,10761,13.42,-0.74,92563
192510,0,0.0,0.0,92778,16032,10765,8.64,1.07,92665
192807,0,0.0,0.0,92880,16030,10759,4.46,-2.42,92768
192808,0,0.0,0.0,92983,16044,10771,14.19,4.6,92870
193012,0,0.0,0.0,93086,16041,10772,8.09,6.18,92974
193012,0,0.0,0.0,93190,16023,10772,-5.73,3.81,93077
193216,0,0.0,0.0,93292,16028,10767,-1.06,-0.07,93180
193217,0,0.0,0.0,93395,16032,10770,0.75,1.84,93282
193421,0,0.0,0.0,93498,16036,10768,3.86,0.47,93385
193422,0,0.0,0.0,93601,16038,10784,3.78,10.59,93488
193627,0,0.0,0.0,93704,16023,10789,-4.23,12.94,93592
193627,0,0.0,0.0,93807,16034,10777,5.21,1.2,93694
193786,0,0.0,0.0,93910,16038,10780,3.6,3.55,93798
193787,0,0.0,0.0,94013,16040,10770,5.38,-6.49,93900
194036,0,0.0,0.0,94115,16091,10722,39.65,-39.06,94003
194037,0,0.0,0.0,94218,16078,10712,33.01,-41.73,94105
194227,0,0.0,0.0,94321,16084,10716,24.71,-27.49,94209
194227,0,0.0,0.0,94424,16095,10717,26.44,-20.47,94311
194446,0,0.0,0.0,94527,16103,10714,25.35,-16.54,94415
194446,0,0.0,0.0,94630,16115,10714,29.73,-13.53,94517
194651,0,0.0,0.0,94733,16126,10709,29.18,-11.46,94621
194651,0,0.0,0.0,94836,16116,10713,13.83,-5.88,94723
194958,0,0.0,0.0,94938,16127,10720,17.17,0.01,94826
