ts,red_raw,ir_raw,red_f,ir_f,bpm,spo2
1,1527.0,3133.0,-188.12,-69.3,0.0,100.0
1,1561.0,3155.0,-154.14,-29.23,0.0,100.0
3,1542.0,3153.0,-137.9,-6.13,0.0,100.0
4,1771.0,3693.0,-42.22,203.4,0.0,100.0
5,1770.0,3697.0,13.66,321.29,0.0,100.0
6,1807.0,3719.0,59.07,390.07,0.0,100.0
7,1807.0,3733.0,83.97,425.99,0.0,100.0
8,1823.0,3780.0,102.24,454.1,0.0,100.0
10,2012.0,4153.0,179.09,595.4,0.0,100.0
10,1988.0,4147.0,210.7,661.28,0.0,100.0
11,1976.0,4130.0,219.8,678.1,0.0,100.0
12,1999.0,4155.0,228.39,681.42,0.0,100.0
13,1806.0,3916.0,158.08,581.03,0.0,100.0
15,1781.0,3921.0,104.76,511.58,0.0,100.0
16,1806.0,3916.0,80.65,457.96,0.0,100.0
17,1785.0,3917.0,57.25,416.9,0.0,100.0
18,1784.0,3920.0,42.06,384.75,0.0,100.0
20,1756.0,3803.0,22.15,314.92,0.0,100.0
21,1745.0,3822.0,6.15,274.28,0.0,100.0
22,1770.0,3819.0,5.85,243.46,0.0,100.0
23,1750.0,3796.0,-1.73,211.74,0.0,100.0
24,1780.0,3796.0,4.83,188.59,0.0,100.0
25,1806.0,3847.0,17.95,189.42,0.0,100.0
26,1801.0,3835.0,23.3,181.22,0.0,100.0
27,1808.0,3840.0,28.4,174.17,0.0,100.0
28,1802.0,3849.0,28.53,169.39,0.0,100.0
29,1755.0,3808.0,10.88,147.87,0.0,100.0
30,1766.0,3792.0,4.43,126.26,0.0,100.0
31,1799.0,3813.0,12.59,118.52,0.0,100.0
32,1777.0,3845.0,9.02,122.96,0.0,100.0
34,1760.0,3832.0,0.59,118.0,0.0,100.0
35,1700.0,3709.0,-26.08,67.78,0.0,100.0
36,1699.0,3716.0,-41.26,39.76,0.0,100.0
37,1703.0,3761.0,-47.64,39.0,0.0,100.0
38,1712.0,3745.0,-46.97,31.87,0.0,100.0
40,1762.0,4207.0,-27.36,194.75,0.0,100.0
41,1779.0,4243.0,-9.23,297.49,0.0,100.0
43,1781.0,4312.0,2.18,375.13,0.0,100.0
43,1788.0,4301.0,11.26,407.43,0.0,100.0
44,1823.0,4297.0,28.96,415.35,0.0,100.0
46,2887.0,5515.0,424.82,852.66,0.0,100.0
48,3040.0,5658.0,699.42,1137.82,0.0,100.0
50,3242.0,5816.0,915.47,1333.99,0.0,100.0
52,3483.0,6020.0,1106.92,1490.98,0.0,100.0
53,29027.0,25506.0,10466.25,8622.23,0.0,100.0
54,29785.0,26109.0,15910.74,12765.07,0.0,100.0
55,30625.0,26796.0,18998.72,15117.14,0.0,100.0
56,31524.0,27508.0,20676.03,16389.88,0.0,100.0
59,32466.0,28239.0,21515.57,17016.81,0.0,100.0
59,878237.0,877628.0,328573.72,325368.28,0.0,99.1
61,879413.0,879485.0,498931.09,496793.41,0.0,98.3
62,880427.0,881122.0,586354.56,585108.69,0.0,97.6
66,881331.0,882596.0,623822.5,623327.31,0.0,97.0
68,882082.0,883894.0,631514.56,631663.06,0.0,96.5
69,1153158.0,1161084.0,719969.63,722706.5,0.0,96.0
71,1153191.0,1161209.0,754669.44,758872.88,0.0,95.6
72,1153278.0,1161357.0,757536.13,762513.31,0.0,95.2
73,1153318.0,1161476.0,741926.63,747266.0,0.0,94.9
75,1153947.0,1163119.0,716210.88,722005.88,0.0,94.6
76,1153964.0,1163148.0,685019.88,690950.31,0.0,94.3
78,1153978.0,1163131.0,651375.56,657237.88,0.0,94.0
79,1153963.0,1163178.0,617070.63,622782.31,0.0,93.8
80,1154000.0,1163172.0,583185.5,588664.25,0.0,93.6
83,1153905.0,1425515.0,550268.0,650767.31,0.0,93.5
84,1153910.0,1425548.0,518696.69,671818.94,0.0,93.3
86,1153907.0,1425567.0,488620.53,668664.63,0.0,93.1
87,1153902.0,1425526.0,460093.81,651573.88,0.0,93.0
89,1153752.0,1425276.0,433060.5,626744.13,0.0,92.9
90,1153705.0,1425285.0,407544.09,598103.19,0.0,92.8
92,1153689.0,1425280.0,383497.5,567908.25,0.0,92.7
93,1153729.0,1425267.0,360869.16,537501.19,0.0,92.6
95,1153714.0,1425247.0,339556.41,507662.72,0.0,92.6
97,1153909.0,1425523.0,319566.28,478940.97,0.0,92.5
98,1153878.0,1425533.0,300714.53,451423.09,0.0,92.4
100,1153894.0,1425538.0,282967.5,425226.69,0.0,92.4
103,1153933.0,1425559.0,266272.0,400397.28,0.0,92.3
104,1154106.0,1425814.0,250613.72,377009.06,0.0,92.2
106,1154077.0,1425821.0,235838.56,354897.13,0.0,92.2
107,1154106.0,1425810.0,221931.73,334020.47,0.0,92.1
108,1154122.0,1425825.0,208839.23,314343.47,0.0,92.1
110,1154127.0,1425831.0,196511.91,295805.13,0.0,92.0
112,1154277.0,1426051.0,184960.58,278425.25,0.0,92.0
113,1154298.0,1426064.0,174074.33,262036.03,0.0,91.9
114,1154308.0,1426047.0,163816.7,246582.27,0.0,91.9
116,1154309.0,1426023.0,154153.02,232019.05,0.0,91.8
118,1154307.0,1426063.0,145051.86,218325.8,0.0,91.8
119,1154384.0,1426161.0,136512.19,205468.77,0.0,91.7
121,1154381.0,1426156.0,128462.46,193350.78,0.0,91.7
122,1154382.0,1426160.0,120881.18,181939.52,0.0,91.6
124,1154372.0,1426158.0,113739.3,171194.77,0.0,91.6
125,1154397.0,1426132.0,107027.04,161071.45,0.0,91.6
127,1154377.0,1426162.0,100699.84,151558.66,0.0,91.5
128,1154417.0,1426117.0,94761.22,142588.28,0.0,91.5
129,1154392.0,1426101.0,89158.97,134146.45,0.0,91.4
130,1154398.0,1426107.0,83890.27,126210.7,0.0,91.4
133,1154535.0,1426128.0,78981.91,118753.84,0.0,91.4
134,1154587.0,1426135.0,74362.89,111738.63,0.0,91.3
137,1154548.0,1426104.0,69983.43,105124.81,0.0,91.3
138,1154575.0,1426117.0,65866.13,98909.81,0.0,91.3
139,1155062.0,1425743.0,62161.41,92926.5,0.0,91.2
141,1155043.0,1425754.0,58595.81,87353.42,0.0,91.2
143,1155057.0,1425701.0,55203.93,82121.17,0.0,91.2
145,1155006.0,1425665.0,51966.12,77211.41,0.0,91.1
146,1155001.0,1425613.0,48908.02,72594.27,0.0,91.1
148,1155283.0,1425737.0,46127.71,68315.48,0.0,91.1
150,1155310.0,1425789.0,43478.77,64303.56,0.0,91.0
151,1155326.0,1425817.0,40962.03,60528.62,0.0,91.0
156,1155366.0,1425896.0,38587.95,56995.25,0.0,91.0
177,1155397.0,1425909.0,36347.23,53658.18,0.0,91.0
195,1155650.0,1426349.0,34315.16,50665.59,0.0,90.9
217,1155671.0,1426381.0,32365.77,47792.36,0.0,90.9
237,1155697.0,1426382.0,30510.47,45042.28,0.0,90.9
256,1155714.0,1426409.0,28748.67,42435.45,0.0,90.8
276,1155759.0,1426573.0,27091.18,40020.79,0.0,90.8
296,1155777.0,1426591.0,25521.91,37719.04,0.0,90.8
317,1155769.0,1426585.0,24030.02,35526.43,0.0,90.8
336,1155745.0,1426585.0,22611.17,33448.96,0.0,90.8
356,1155769.0,1426575.0,21284.18,31482.05,0.0,90.7
376,1155767.0,1426597.0,20031.15,29635.21,0.0,90.7
396,1155751.0,1426622.0,18844.35,27901.17,0.0,90.7
416,1155748.0,1426603.0,17727.64,26255.8,0.0,90.7
436,1155747.0,1426595.0,16677.61,24703.22,0.0,90.6
457,1155688.0,1426478.0,15668.99,23200.16,0.0,90.6
476,1155686.0,1426458.0,14728.11,21795.07,0.0,90.6
496,1155663.0,1426478.0,13840.15,20493.36,0.0,90.6
517,1155668.0,1426476.0,13013.11,19272.92,0.0,90.6
536,1155678.0,1426470.0,12242.06,18125.87,0.0,90.6
556,1155559.0,1426346.0,11473.95,17004.57,0.0,90.5
576,1155536.0,1426356.0,10760.05,15972.42,0.0,90.5
597,1155551.0,1426360.0,10107.55,15013.08,0.0,90.5
616,1155564.0,1426354.0,9504.56,14114.18,0.0,90.5
637,1155434.0,1426272.0,8892.16,13243.04,0.0,90.5
656,1155462.0,1426246.0,8345.63,12428.12,0.0,90.5
676,1155430.0,1426244.0,7827.79,11673.06,0.0,90.5
696,1155425.0,1426242.0,7348.18,10969.63,0.0,90.4
716,1155427.0,1426217.0,6904.08,10303.84,0.0,90.4
735,1155278.0,1426079.0,6435.99,9634.05,0.0,90.4
756,1155287.0,1426098.0,6022.0,9034.12,0.0,90.4
776,1155298.0,1426087.0,5649.41,8477.35,0.0,90.4
796,1155262.0,1426057.0,5292.11,7951.4,0.0,90.4
817,1155264.0,1426086.0,4965.74,7476.61,0.0,90.4
841,1155048.0,1425841.0,4585.39,6942.89,0.0,90.4
857,1155021.0,1425799.0,4251.26,6460.81,0.0,90.4
877,1155047.0,1425774.0,3970.64,6025.76,0.0,90.3
896,1155030.0,1425751.0,3711.66,5628.59,0.0,90.3
916,1154811.0,1425422.0,3397.88,5151.21,0.0,90.3
936,1154779.0,1425432.0,3127.38,4761.45,0.0,90.3
956,1154773.0,1425427.0,2897.57,4425.91,0.0,90.3
976,1154811.0,1425428.0,2712.56,4131.42,0.0,90.3
996,1154776.0,1425431.0,2531.09,3867.97,0.0,90.3
1017,1154704.0,1425453.0,2342.33,3635.57,0.0,90.3
1036,1154706.0,1425457.0,2180.61,3419.87,0.0,90.3
1056,1154704.0,1425455.0,2036.66,3216.41,0.0,90.3
1075,1154675.0,1425448.0,1896.47,3022.94,0.0,90.4
1097,1154608.0,1425368.0,1747.92,2813.24,0.0,90.4
1116,1154577.0,1425417.0,1610.91,2645.64,0.0,90.5
1135,1154564.0,1425403.0,1490.24,2483.34,0.0,90.6
1156,1154590.0,1425409.0,1396.03,2335.15,0.0,90.7
1176,1154584.0,1425429.0,1307.47,2203.43,0.0,90.9
1196,1154507.0,1425429.0,1198.57,2077.12,0.0,91.0
1217,1154552.0,1425450.0,1124.71,1964.33,0.0,91.3
1235,1154519.0,1425437.0,1044.38,1849.66,0.0,91.5
1255,1154514.0,1425430.0,972.28,1738.63,0.0,91.8
1276,1154500.0,1425440.0,903.36,1638.43,0.0,92.0
1296,1154495.0,1425485.0,841.15,1559.51,0.0,92.3
1316,1154489.0,1425478.0,783.87,1475.77,0.0,92.6
1336,1154497.0,1425520.0,735.77,1408.97,0.0,92.8
1356,1154487.0,1425489.0,687.55,1327.0,0.0,93.1
1376,1154449.0,1425574.0,630.16,1280.19,0.0,93.3
1396,1154454.0,1425549.0,584.41,1214.91,0.0,93.5
1417,1154477.0,1425592.0,553.0,1165.05,0.0,93.6
1435,1154452.0,1425579.0,513.13,1104.95,0.0,93.8
1455,1154480.0,1425546.0,488.55,1033.09,0.0,93.9
1475,1154455.0,1425618.0,454.09,994.16,0.0,94.1
1496,1154462.0,1425630.0,426.46,953.23,0.0,94.2
1516,1154452.0,1425639.0,397.17,911.13,0.0,94.3
1536,1154457.0,1425626.0,372.94,861.38,0.0,94.4
1557,1154535.0,1425813.0,378.82,880.9,0.0,94.5
1575,1154533.0,1425834.0,372.82,879.61,0.0,94.5
1596,1154521.0,1425806.0,356.59,848.68,0.0,94.6
1616,1154544.0,1425805.0,347.42,811.04,0.0,94.7
1636,1154547.0,1425829.0,335.19,779.52,0.0,94.7
1656,1154408.0,1425486.0,270.15,618.98,0.0,94.8
1676,1154389.0,1425499.0,219.34,516.78,0.0,94.8
1696,1154411.0,1425487.0,193.12,441.63,0.0,94.9
1715,1154391.0,1425491.0,166.18,389.53,0.0,94.9
1736,1154376.0,1425475.0,141.37,344.72,0.0,94.9
1756,1154376.0,1425556.0,123.84,340.48,0.0,94.9
1776,1154369.0,1425552.0,108.32,328.72,0.0,95.0
1796,1154389.0,1425549.0,104.2,313.43,0.0,95.0
1816,1154361.0,1425561.0,89.38,301.67,0.0,95.0
1836,1154371.0,1425588.0,82.33,297.79,0.0,95.0
1855,1154340.0,1425546.0,65.16,273.56,0.0,95.0
1877,1154331.0,1425555.0,50.45,256.51,0.0,95.0
1896,1154363.0,1425543.0,52.45,236.51,0.0,95.0
1916,1154347.0,1425538.0,46.69,217.7,0.0,95.0
1937,1154350.0,1425528.0,43.4,198.29,0.0,95.0
1956,1154324.0,1425513.0,30.93,177.12,0.0,95.0
1976,1154324.0,1425518.0,23.05,162.54,0.0,95.0
1995,1154324.0,1425507.0,17.88,146.42,0.0,95.0
2015,1154310.0,1425517.0,9.53,137.37,0.0,95.0
2036,1154293.0,1425543.0,-1.76,138.54,0.0,95.0
2056,1154314.0,1425545.0,-0.59,136.66,0.0,95.0
2076,1154287.0,1425541.0,-9.76,131.02,0.0,95.0
2096,1154287.0,1425542.0,-14.82,125.14,0.0,95.0
2116,1154292.0,1425587.0,-15.64,135.25,0.0,95.0
2136,1154284.0,1425538.0,-18.58,120.2,0.0,95.0
2156,1154307.0,1425568.0,-11.53,119.73,0.0,94.9
2176,1154292.0,1425533.0,-12.58,103.97,0.0,94.9
2195,1154338.0,1425555.0,3.65,100.56,0.0,94.9
2216,1154269.0,1425605.0,-12.0,114.32,0.0,94.9
2236,1154284.0,1425582.0,-15.41,111.49,0.0,94.9
2256,1154287.0,1425579.0,-15.88,106.08,0.0,94.9
2276,1154260.0,1425588.0,-25.64,103.97,0.0,94.9
2296,1154290.0,1425610.0,-19.76,108.32,0.0,94.9
2315,1154275.0,1425618.0,-21.29,111.26,0.0,94.9
2336,1154273.0,1425635.0,-22.46,116.55,0.0,94.9
2355,1154267.0,1425572.0,-24.82,94.09,0.0,94.9
2376,1154269.0,1425606.0,-24.93,91.38,0.0,94.9
2396,1154113.0,1425240.0,-81.03,-45.28,0.0,94.9
2416,1154126.0,1425265.0,-106.79,-114.08,0.0,94.9
2436,1154107.0,1425221.0,-126.2,-167.24,0.0,94.9
2456,1154114.0,1425218.0,-132.08,-195.23,0.0,94.9
2476,1154131.0,1425233.0,-126.31,-201.47,0.0,94.9
2496,1154120.0,1425240.0,-124.08,-197.94,0.0,94.9
2516,1154107.0,1425257.0,-124.67,-185.35,0.0,94.9
2536,1154136.0,1425222.0,-111.61,-186.53,0.0,94.9
2556,1154138.0,1425223.0,-100.79,-182.53,0.0,94.9
2577,1154092.0,1425251.0,-108.91,-165.83,0.0,94.9
2596,1154110.0,1425249.0,-104.56,-153.25,0.0,94.9
2616,1154123.0,1425241.0,-94.91,-145.37,0.0,94.9
2637,1154126.0,1425249.0,-86.09,-134.55,0.0,94.9
2656,1154107.0,1425206.0,-85.97,-140.78,0.0,94.9
2676,1154078.0,1425225.0,-94.44,-134.31,0.0,94.9
2696,1154100.0,1425245.0,-89.27,-120.2,0.0,94.9
2716,1154106.0,1425221.0,-81.97,-118.08,0.0,94.9
2737,1154084.0,1425244.0,-83.97,-105.85,0.0,94.9
2756,1154096.0,1425230.0,-78.92,-101.5,0.0,95.0
2776,1154055.0,1425235.0,-88.91,-94.79,0.0,95.0
2795,1154084.0,1425226.0,-82.21,-91.97,0.0,95.0
2815,1154083.0,1425250.0,-76.8,-79.5,0.0,95.0
2835,1154100.0,1425260.0,-65.74,-66.92,0.0,95.1
2856,1154094.0,1425326.0,-60.1,-34.11,0.0,95.1
2875,1154089.0,1425297.0,-57.28,-24.93,0.0,95.1
2895,1154100.0,1425307.0,-50.22,-15.41,0.0,95.2
2916,1154093.0,1425289.0,-47.63,-16.0,0.0,95.2
2935,1154075.0,1425331.0,-51.63,-0.82,0.0,95.3
2954,1154113.0,1425335.0,-38.93,9.41,0.0,95.3
2975,1154126.0,1425324.0,-25.87,11.06,0.0,95.4
2995,1154102.0,1425329.0,-26.46,13.64,0.0,95.5
3016,1154087.0,1425346.0,-31.75,20.93,0.0,95.6
3036,1154107.0,1425420.0,-26.82,51.51,0.0,95.6
3055,1154107.0,1425401.0,-23.4,61.16,0.0,95.7
3075,1154107.0,1425406.0,-20.82,67.04,0.0,95.9
3091,1154103.0,1425415.0,-20.35,72.21,0.0,96.0
3116,1154014.0,1425117.0,-51.98,-34.58,0.0,96.1
3136,1153969.0,1425154.0,-85.39,-82.09,0.0,96.2
3153,1153979.0,1425100.0,-99.03,-127.25,0.0,96.3
3169,1153983.0,1425084.0,-103.26,-156.3,0.0,96.5
3192,1153976.0,1425072.0,-105.85,-173.83,0.0,96.6
3212,1153951.0,1424997.0,-114.08,-207.35,0.0,96.7
3236,1153938.0,1425009.0,-120.9,-217.58,0.0,96.9
3253,1153937.0,1425009.0,-122.43,-218.52,0.0,97.0
3276,1153947.0,1425016.0,-116.9,-211.58,0.0,97.2
3296,1153938.0,1425006.0,-114.32,-206.41,0.0,97.3
3314,1153916.0,1425008.0,-118.2,-197.94,0.0,97.5
3336,1153932.0,1424992.0,-111.97,-194.41,0.0,97.6
3357,1153969.0,1425001.0,-92.44,-184.53,0.0,97.8
3372,1153907.0,1425006.0,-101.5,-172.89,0.0,97.9
3392,1153928.0,1424998.0,-96.79,-165.01,0.0,98.0
3410,1153936.0,1424984.0,-88.91,-161.83,0.0,98.2
3438,1153900.0,1424991.0,-95.38,-153.83,0.0,98.3
3456,1153888.0,1424999.0,-101.38,-142.78,0.0,98.4
3473,1153930.0,1425007.0,-87.27,-130.19,0.0,98.6
3496,1153875.0,1424973.0,-97.03,-132.31,0.0,98.7
3516,1153905.0,1424946.0,-89.62,-140.31,0.0,98.8
3536,1153886.0,1424945.0,-90.21,-142.07,0.0,98.9
3555,1153905.0,1424949.0,-81.62,-138.43,0.0,99.0
3574,1153913.0,1424971.0,-71.86,-125.14,0.0,99.1
3594,1153912.0,1425000.0,-64.92,-104.09,0.0,99.2
3614,1153880.0,1424972.0,-71.04,-99.73,0.0,99.3
3637,1153912.0,1424983.0,-61.27,-91.03,0.0,99.3
3655,1153902.0,1424984.0,-57.86,-83.39,0.0,99.4
3670,1153916.0,1425039.0,-49.51,-57.16,0.0,99.5
3694,1153883.0,1425052.0,-55.63,-35.99,0.0,99.5
3713,1153917.0,1425029.0,-45.52,-31.28,0.0,99.6
3736,1153909.0,1425043.0,-41.52,-22.7,0.0,99.6
3755,1153896.0,1425112.0,-42.93,7.76,0.0,99.6
3776,1153917.0,1425074.0,-35.17,11.41,0.0,99.7
3795,1153906.0,1425060.0,-33.87,8.12,0.0,99.7
3814,1153912.0,1425097.0,-30.11,19.52,0.0,99.7
3832,1153913.0,1425086.0,-26.93,21.64,0.0,99.8
3854,1153899.0,1425077.0,-29.52,19.05,0.0,99.8
3875,1153890.0,1425039.0,-33.64,3.29,0.0,99.8
3896,1153864.0,1425046.0,-44.69,-3.41,0.0,99.8
3915,1153841.0,1425010.0,-58.45,-20.11,0.0,99.8
3936,1153854.0,1425010.0,-60.33,-29.4,81.1,99.9
3956,1153733.0,1424675.0,-103.97,-155.6,81.1,99.9
3977,1153744.0,1424667.0,-122.9,-228.05,81.1,99.9
3996,1153743.0,1424682.0,-131.25,-259.1,81.1,99.9
4016,1153729.0,1424659.0,-138.19,-279.56,81.1,99.9
4036,1153743.0,1424700.0,-134.08,-270.03,81.1,99.9
4055,1153737.0,1424671.0,-130.78,-268.97,81.1,99.9
4073,1153676.0,1424689.0,-148.07,-255.68,81.1,99.9
4096,1153729.0,1424702.0,-135.49,-237.34,81.1,99.9
4115,1153729.0,1424683.0,-125.14,-228.4,81.1,99.9
4135,1153730.0,1424729.0,-115.85,-201.23,81.1,100.0
4156,1153714.0,1424723.0,-113.73,-183.12,81.1,100.0
4174,1153725.0,1424719.0,-105.85,-169.95,81.1,100.0
4195,1153730.0,1424747.0,-97.15,-148.31,81.1,100.0
4215,1153696.0,1424721.0,-102.2,-141.84,81.1,100.0
4236,1153648.0,1424741.0,-120.2,-127.61,81.1,100.0
4256,1153690.0,1424749.0,-112.67,-113.61,81.1,100.0
4273,1153713.0,1424755.0,-97.38,-100.67,81.1,100.0
4295,1153684.0,1424741.0,-96.79,-95.97,81.1,100.0
4318,1153698.0,1424804.0,-89.15,-68.33,81.1,100.0
4336,1153706.0,1424809.0,-79.86,-48.93,81.1,100.0
4355,1153706.0,1424798.0,-72.68,-40.58,81.1,100.0
4375,1153704.0,1424811.0,-67.51,-30.23,81.1,100.0
4395,1153689.0,1424810.0,-68.45,-23.87,81.1,100.0
4415,1153713.0,1424897.0,-58.81,12.0,81.1,100.0
4436,1153696.0,1424867.0,-57.98,21.52,81.1,100.0
4456,1153694.0,1424882.0,-56.92,31.99,81.1,100.0
4476,1153713.0,1424879.0,-48.1,36.22,81.1,100.0
4495,1153677.0,1424919.0,-55.04,52.34,81.1,100.0
4515,1153703.0,1424932.0,-48.22,65.27,81.1,100.0
4536,1153734.0,1424927.0,-31.99,69.39,81.1,100.0
4555,1153698.0,1424931.0,-34.93,71.62,81.1,100.0
4576,1153696.0,1424944.0,-36.58,76.09,81.1,100.0
4596,1153711.0,1424957.0,-31.28,81.62,81.1,100.0
4616,1153696.0,1424968.0,-32.93,86.91,81.1,100.0
4633,1153713.0,1424979.0,-26.93,91.97,81.1,100.0
4655,1153706.0,1424978.0,-25.29,92.44,81.1,100.0
4676,1153623.0,1424649.0,-53.98,-28.81,79.8,100.0
4696,1153585.0,1424660.0,-83.15,-94.32,79.0,100.0
4715,1153589.0,1424661.0,-96.56,-129.61,78.3,100.0
4736,1153587.0,1424632.0,-102.79,-157.6,77.9,100.0
4755,1153561.0,1424638.0,-113.49,-168.07,77.6,100.0
4776,1153532.0,1424561.0,-127.72,-198.17,77.4,100.0
4796,1153532.0,1424564.0,-133.02,-209.93,77.3,100.0
4816,1153536.0,1424558.0,-131.49,-214.05,77.2,100.0
4836,1153534.0,1424570.0,-128.43,-207.23,77.1,100.0
4856,1153541.0,1424592.0,-121.14,-190.65,77.0,100.0
4876,1153532.0,1424563.0,-117.38,-187.24,77.0,100.0
4897,1153549.0,1424571.0,-106.44,-178.06,77.0,100.0
4916,1153540.0,1424580.0,-100.91,-165.36,77.0,100.0
4936,1153549.0,1424563.0,-92.09,-160.42,77.0,100.0
4956,1153550.0,1424619.0,-84.56,-133.61,76.9,100.0
4976,1153555.0,1424582.0,-76.45,-128.43,76.9,100.0
4996,1153486.0,1424609.0,-95.15,-112.67,76.9,100.0
5016,1153526.0,1424615.0,-89.15,-98.91,75.8,100.0
5035,1153514.0,1424603.0,-88.09,-93.03,75.0,100.0
5057,1153549.0,1424585.0,-72.8,-93.97,74.5,100.0
5076,1153521.0,1424577.0,-72.33,-95.38,74.1,100.0
5096,1153527.0,1424566.0,-68.33,-97.97,73.8,100.0
5116,1153527.0,1424571.0,-64.45,-95.38,73.6,100.0
5136,1153535.0,1424606.0,-57.86,-79.03,73.5,100.0
5156,1153519.0,1424604.0,-58.57,-68.45,73.4,100.0
5175,1153514.0,1424607.0,-59.51,-59.75,73.3,100.0
5196,1153534.0,1424623.0,-51.4,-47.51,73.3,100.0
5216,1153529.0,1424629.0,-47.28,-37.16,73.2,100.0
5235,1153506.0,1424660.0,-52.22,-19.05,73.2,100.0
5257,1153520.0,1424626.0,-48.81,-20.58,73.2,100.0
5276,1153531.0,1424624.0,-41.63,-21.76,73.2,100.0
5296,1153506.0,1424583.0,-45.63,-36.69,73.2,100.0
5316,1153550.0,1424613.0,-30.93,-33.75,73.2,100.0
5336,1153525.0,1424655.0,-30.81,-16.0,73.2,100.0
5357,1153529.0,1424638.0,-28.7,-11.53,73.2,100.0
5376,1153535.0,1424667.0,-24.58,1.88,73.2,100.0
5396,1153525.0,1424645.0,-25.29,1.65,73.2,100.0
5416,1153543.0,1424656.0,-18.58,5.41,73.2,100.0
5435,1153527.0,1424659.0,-20.11,8.47,73.2,100.0
5456,1153509.0,1424630.0,-27.05,-0.35,73.2,100.0
5476,1153515.0,1424694.0,-28.23,17.76,73.2,100.0
5496,1153509.0,1424611.0,-30.46,-2.35,73.2,100.0
5516,1153378.0,1424266.0,-78.68,-139.13,73.2,100.0
5536,1153370.0,1424237.0,-107.61,-225.58,73.2,100.0
5557,1153390.0,1424215.0,-114.55,-278.38,73.2,100.0
5577,1153368.0,1424243.0,-123.96,-292.38,73.2,100.0
5597,1153351.0,1424274.0,-132.78,-282.5,73.2,100.0
5616,1153363.0,1424269.0,-130.43,-272.27,73.2,100.0
5636,1153350.0,1424272.0,-130.78,-258.98,73.2,100.0
5656,1153371.0,1424276.0,-120.43,-244.04,73.2,100.0
5676,1153352.0,1424282.0,-118.55,-227.58,73.2,100.0
5697,1153362.0,1424285.0,-111.14,-211.82,73.2,100.0
5716,1153368.0,1424309.0,-102.09,-189.24,73.2,100.0
5736,1153379.0,1424312.0,-90.56,-170.65,73.2,100.0
5757,1153360.0,1424295.0,-88.68,-162.18,73.2,100.0
5776,1153340.0,1424220.0,-92.79,-180.77,73.2,100.0
5796,1153324.0,1424255.0,-98.91,-174.77,73.2,100.0
5816,1153355.0,1424249.0,-88.91,-169.48,73.2,100.0
5835,1153348.0,1424261.0,-83.62,-158.19,73.2,100.0
5857,1153325.0,1424254.0,-87.03,-150.54,73.2,100.0
5876,1153316.0,1424280.0,-90.21,-133.25,73.2,100.0
5896,1153350.0,1424269.0,-77.74,-124.2,73.2,100.0
5916,1153333.0,1424268.0,-74.92,-116.55,73.2,100.0
5936,1153321.0,1424285.0,-75.86,-103.26,73.2,100.0
5976,1153330.0,1424283.0,-71.51,-93.97,73.2,100.0
5977,1153328.0,1424293.0,-68.1,-82.92,73.2,100.0
5996,1153323.0,1424308.0,-66.33,-69.04,73.2,100.0
6015,1153348.0,1424299.0,-54.81,-62.8,73.2,100.0
6036,1153334.0,1424290.0,-51.87,-60.92,73.2,100.0
6056,1153357.0,1424313.0,-40.69,-50.1,73.2,100.0
6076,1153326.0,1424347.0,-44.57,-30.46,73.2,100.0
6096,1153344.0,1424343.0,-39.28,-19.88,73.2,100.0
6116,1153331.0,1424336.0,-39.99,-15.76,73.2,100.0
6136,1153325.0,1424300.0,-41.75,-26.11,73.2,100.0
6156,1153337.0,1424339.0,-37.4,-17.41,73.2,100.0
6175,1153343.0,1424330.0,-31.87,-15.17,73.2,100.0
6196,1153312.0,1424327.0,-39.16,-14.58,73.2,100.0
6216,1153353.0,1424316.0,-27.64,-17.99,73.2,100.0
6237,1153160.0,1423891.0,-90.44,-173.83,74.6,100.0
6257,1153196.0,1423920.0,-111.61,-249.33,75.6,100.0
6276,1153164.0,1423878.0,-132.9,-302.61,76.3,100.0
6297,1153161.0,1423907.0,-143.25,-316.02,76.8,100.0
6315,1153162.0,1423892.0,-145.6,-321.9,77.1,100.0
6337,1153155.0,1423880.0,-146.19,-322.25,77.4,100.0
6356,1153163.0,1423892.0,-140.31,-310.84,77.5,100.0
6376,1153126.0,1423877.0,-147.13,-302.61,77.6,100.0
6396,1153155.0,1423874.0,-137.13,-292.03,77.7,100.0
6417,1153179.0,1423900.0,-119.49,-269.8,77.8,100.0
6437,1153133.0,1423861.0,-123.26,-264.98,77.8,100.0
6457,1153149.0,1423848.0,-116.9,-260.86,77.9,100.0
6476,1153147.0,1423865.0,-111.26,-246.39,79.5,100.0
6496,1153129.0,1423877.0,-111.97,-228.05,80.6,100.0
6516,1153125.0,1423830.0,-111.26,-229.22,81.5,100.0
6536,1153123.0,1423851.0,-109.02,-217.11,82.0,100.0
6556,1153120.0,1423820.0,-106.32,-216.4,82.4,100.0
6577,1153085.0,1423846.0,-115.14,-201.58,82.7,100.0
6596,1153131.0,1423794.0,-100.91,-207.35,82.9,100.0
6616,1153117.0,1423821.0,-95.38,-196.17,83.0,100.0
6636,1153128.0,1423831.0,-86.09,-181.59,83.1,100.0
6656,1153115.0,1423828.0,-83.5,-170.06,83.2,100.0
6676,1153144.0,1423825.0,-69.51,-160.66,83.2,100.0
6697,1153144.0,1423888.0,-59.86,-128.67,83.3,100.0
6716,1153148.0,1423915.0,-51.51,-97.38,83.3,100.0
6736,1153109.0,1423888.0,-59.63,-86.91,83.3,100.0
6756,1153133.0,1423903.0,-54.22,-73.39,83.3,100.0
6775,1153124.0,1423915.0,-53.16,-59.63,83.3,100.0
6796,1153133.0,1423922.0,-47.99,-47.75,83.3,100.0
6816,1153167.0,1423910.0,-31.64,-44.1,83.3,100.0
6836,1153159.0,1423913.0,-24.35,-39.99,83.3,100.0
6857,1153110.0,1423934.0,-37.4,-29.05,83.3,100.0
6877,1153162.0,1423988.0,-25.17,-2.47,83.3,100.0
6896,1153133.0,1423974.0,-27.99,7.88,83.3,100.0
6916,1153160.0,1423981.0,-19.29,16.23,83.3,100.0
6936,1153168.0,1423992.0,-10.82,24.7,83.3,100.0
6956,1153173.0,1423965.0,-4.0,19.17,83.3,100.0
6976,1153046.0,1423726.0,-45.99,-71.27,83.0,100.0
6996,1153072.0,1423713.0,-59.86,-126.55,82.8,100.0
7016,1153050.0,1423664.0,-74.45,-173.36,82.6,100.0
7036,1153045.0,1423590.0,-83.03,-223.34,82.5,100.0
7056,1153025.0,1423672.0,-93.26,-217.46,82.4,100.0
7076,1152959.0,1423439.0,-121.02,-293.67,82.3,100.0
7096,1152963.0,1423427.0,-132.9,-335.31,82.3,100.0
7116,1152958.0,1423440.0,-138.54,-346.95,82.3,100.0
7137,1152964.0,1423430.0,-136.43,-349.42,82.2,100.0
7157,1152953.0,1423409.0,-136.08,-350.48,82.2,100.0
7177,1152954.0,1423410.0,-132.43,-342.72,82.2,100.0
7196,1152947.0,1423437.0,-129.72,-320.61,82.2,100.0
7216,1152917.0,1423445.0,-136.19,-297.67,82.2,100.0
7236,1152947.0,1423423.0,-125.96,-285.56,82.2,100.0
7256,1152936.0,1423438.0,-121.14,-266.5,82.2,100.0
7276,1152942.0,1423404.0,-113.38,-261.8,82.2,100.0
7297,1152936.0,1423415.0,-108.55,-249.1,82.2,100.0
7317,1152933.0,1423420.0,-104.32,-234.28,81.9,100.0
7337,1152935.0,1423346.0,-98.79,-247.22,81.6,100.0
7356,1152906.0,1423408.0,-103.85,-226.64,81.5,100.0
7375,1152948.0,1423416.0,-89.27,-206.64,81.3,100.0
7396,1152941.0,1423403.0,-81.27,-195.12,81.3,100.0
7416,1152944.0,1423414.0,-73.62,-179.94,81.2,100.0
7436,1152945.0,1423437.0,-67.27,-158.77,81.2,100.0
7456,1152915.0,1423469.0,-72.92,-131.25,81.1,100.0
7477,1152938.0,1423445.0,-66.1,-121.14,81.1,100.0
7496,1152949.0,1423458.0,-56.69,-107.85,81.1,100.0
7516,1152931.0,1423461.0,-56.57,-96.56,81.1,100.0
7537,1152966.0,1423483.0,-42.57,-79.74,81.1,100.0
7556,1152963.0,1423496.0,-34.58,-63.63,81.1,100.0
7577,1152969.0,1423495.0,-26.93,-53.16,81.1,100.0
7596,1152953.0,1423477.0,-27.64,-52.45,81.1,100.0
7616,1152974.0,1423551.0,-19.88,-23.99,81.1,100.0
7636,1152958.0,1423557.0,-20.7,-4.82,81.1,100.0
7656,1152961.0,1423542.0,-19.64,0.82,81.1,100.0
7677,1152970.0,1423551.0,-15.29,7.41,81.1,100.0
7696,1152970.0,1423559.0,-12.47,14.0,81.1,100.0
7715,1152982.0,1423618.0,-6.23,38.81,81.1,100.0
7736,1153003.0,1423610.0,5.17,49.4,81.1,100.0
7756,1153012.0,1423623.0,14.82,59.04,81.1,100.0
7776,1152980.0,1423624.0,8.59,63.63,81.1,100.0
7797,1152854.0,1423251.0,-40.93,-70.57,79.5,100.0
7816,1152874.0,1423244.0,-61.39,-149.13,78.5,100.0
7836,1152854.0,1423232.0,-79.03,-195.35,77.7,100.0
7856,1152846.0,1423233.0,-90.32,-217.34,77.2,100.0
7877,1152825.0,1423200.0,-102.56,-237.1,76.8,100.0
7897,1152778.0,1423010.0,-124.2,-312.02,76.6,100.0
7916,1152784.0,1423045.0,-131.84,-335.54,76.4,100.0
7936,1152793.0,1423047.0,-129.96,-340.6,76.2,100.0
7956,1152783.0,1422992.0,-129.49,-355.89,76.2,100.0
7977,1152806.0,1423017.0,-117.96,-347.54,76.1,100.0
7996,1152764.0,1423022.0,-123.84,-332.84,74.7,100.0
8016,1152749.0,1423011.0,-129.84,-320.84,73.7,100.0
8061,1152754.0,1423010.0,-128.55,-306.96,73.0,100.0
8063,1152753.0,1423009.0,-125.25,-292.26,72.5,100.0
8077,1152708.0,1422990.0,-136.78,-284.03,72.2,100.0
8097,1152731.0,1423018.0,-131.96,-262.51,72.0,100.0
8117,1152727.0,1422978.0,-127.72,-258.63,71.8,100.0
8136,1152733.0,1422999.0,-120.2,-242.98,71.7,100.0
8156,1152734.0,1422989.0,-112.67,-231.93,71.6,100.0
8176,1152721.0,1423010.0,-110.44,-212.64,71.6,100.0
8196,1152732.0,1422986.0,-102.67,-205.35,71.5,100.0
8216,1152727.0,1422967.0,-97.62,-203.35,71.5,100.0
8236,1152729.0,1422959.0,-91.74,-200.53,71.5,100.0
8257,1152735.0,1423024.0,-84.09,-170.65,71.5,100.0
8276,1152709.0,1423019.0,-87.27,-151.36,71.5,100.0
8297,1152757.0,1423008.0,-69.63,-140.78,71.4,100.0
8316,1152731.0,1423016.0,-67.27,-128.55,71.4,100.0
8337,1152751.0,1423030.0,-57.04,-113.38,71.4,100.0
8356,1152733.0,1423052.0,-56.45,-94.09,71.4,100.0
8377,1152750.0,1423042.0,-48.69,-84.44,71.4,100.0
8397,1152727.0,1423057.0,-51.51,-71.51,71.4,100.0
8416,1152715.0,1423054.0,-56.22,-63.51,71.4,100.0
8436,1152770.0,1423055.0,-37.75,-57.04,71.4,100.0
8456,1152736.0,1423075.0,-38.58,-44.69,71.4,100.0
8476,1152731.0,1423067.0,-39.99,-39.52,71.4,100.0
8496,1152757.0,1423098.0,-30.46,-24.35,71.4,100.0
8517,1152759.0,1423056.0,-23.52,-30.34,71.4,100.0
8536,1152762.0,1423096.0,-17.88,-18.58,71.4,100.0
8557,1152771.0,1423113.0,-10.94,-5.17,71.4,100.0
8576,1152773.0,1423096.0,-6.0,-3.41,71.4,100.0
8596,1152764.0,1423065.0,-6.23,-13.53,71.4,100.0
8616,1152756.0,1423108.0,-9.17,-3.53,71.4,100.0
8637,1152642.0,1422839.0,-51.98,-95.26,72.0,100.0
8656,1152659.0,1422784.0,-69.39,-166.07,72.3,100.0
8677,1152623.0,1422780.0,-90.91,-204.76,72.6,100.0
8696,1152628.0,1422791.0,-99.38,-218.4,72.8,100.0
8716,1152526.0,1422471.0,-139.13,-337.42,72.9,100.0
8736,1152546.0,1422470.0,-151.6,-398.82,73.0,100.0
8757,1152541.0,1422519.0,-157.24,-407.52,73.0,100.0
8777,1152509.0,1422467.0,-168.54,-422.1,73.1,100.0
8797,1152555.0,1422505.0,-154.42,-407.17,73.1,100.0
8817,1152504.0,1422451.0,-161.24,-408.7,73.1,100.0
8836,1152511.0,1422449.0,-159.01,-401.05,73.1,100.0
8857,1152512.0,1422474.0,-153.72,-378.35,73.7,100.0
8876,1152494.0,1422444.0,-153.72,-367.53,74.1,100.0
8897,1152510.0,1422417.0,-144.43,-362.71,74.4,100.0
8917,1152506.0,1422438.0,-137.13,-344.01,74.6,100.0
8937,1152529.0,1422443.0,-121.49,-323.55,74.7,100.0
8957,1152500.0,1422438.0,-120.2,-306.14,74.8,100.0
8976,1152514.0,1422451.0,-111.73,-284.38,74.8,100.0
8997,1152476.0,1422377.0,-118.08,-292.26,74.9,100.0
9016,1152501.0,1422378.0,-109.97,-289.79,74.9,100.0
9036,1152488.0,1422352.0,-107.5,-291.09,74.9,100.0
9057,1152491.0,1422395.0,-102.56,-269.68,75.0,100.0
9076,1152482.0,1422374.0,-100.56,-258.63,75.0,100.0
9097,1152484.0,1422355.0,-96.32,-253.33,75.0,100.0
9117,1152478.0,1422372.0,-93.97,-238.4,75.0,100.0
9136,1152500.0,1422377.0,-82.44,-222.4,75.0,100.0
9157,1152480.0,1422359.0,-81.27,-214.64,75.0,100.0
9177,1152499.0,1422370.0,-71.74,-201.23,75.0,100.0
9210,1152493.0,1422402.0,-66.8,-177.36,75.0,100.0
9216,1152470.0,1422431.0,-70.68,-148.89,75.0,100.0
9236,1152477.0,1422401.0,-68.8,-139.96,75.0,100.0
9295,1152490.0,1422402.0,-61.39,-131.25,75.0,100.0
9296,1152479.0,1422458.0,-59.75,-102.91,75.0,100.0
9298,1152495.0,1422447.0,-51.63,-88.21,75.0,100.0
9316,1152506.0,1422442.0,-41.75,-79.62,75.0,100.0
9336,1152533.0,1422453.0,-25.29,-68.8,75.0,100.0
9357,1152518.0,1422430.0,-20.58,-69.27,75.0,100.0
9376,1152500.0,1422466.0,-23.99,-54.81,75.0,100.0
9396,1152512.0,1422439.0,-21.05,-55.04,75.0,100.0
9416,1152493.0,1422408.0,-25.76,-65.16,75.0,100.0
9437,1152462.0,1422416.0,-39.16,-66.57,75.0,100.0
9457,1152277.0,1421837.0,-113.14,-276.15,75.0,100.0
9477,1152276.0,1421822.0,-153.6,-396.35,75.0,100.0
9497,1152278.0,1421799.0,-172.77,-465.15,75.0,100.0
9516,1152259.0,1421749.0,-186.77,-512.43,75.0,100.0
9537,1152304.0,1421792.0,-174.3,-512.43,75.0,100.0
9557,1152200.0,1421672.0,-200.88,-544.18,75.0,100.0
9577,1152221.0,1421658.0,-204.05,-555.24,75.0,100.0
9596,1152209.0,1421686.0,-205.47,-538.89,75.0,100.0
9616,1152216.0,1421678.0,-199.11,-519.96,75.0,100.0
9637,1152144.0,1421527.0,-217.11,-552.06,75.0,100.0
9657,1152156.0,1421506.0,-218.17,-565.71,75.0,100.0
9677,1152168.0,1421488.0,-209.35,-567.23,75.0,100.0
9697,1152120.0,1421470.0,-216.99,-561.71,75.0,100.0
9716,1152154.0,1421504.0,-204.17,-533.36,75.0,100.0
9736,1152101.0,1421435.0,-211.23,-529.83,75.0,100.0
9756,1152090.0,1421411.0,-214.52,-524.42,75.0,100.0
9776,1152079.0,1421397.0,-215.58,-514.43,75.0,100.0
9796,1152106.0,1421404.0,-201.47,-494.32,75.0,100.0
9816,1152076.0,1421331.0,-199.58,-498.08,75.0,100.0
9836,1152093.0,1421322.0,-187.82,-492.08,75.0,100.0
9856,1152018.0,1421331.0,-203.94,-474.2,75.0,100.0
9876,1152099.0,1421322.0,-179.12,-456.33,75.0,100.0
9897,1152054.0,1421334.0,-177.12,-431.16,75.0,100.0
9917,1152074.0,1421315.0,-164.65,-413.75,75.0,100.0
9936,1152058.0,1421291.0,-159.48,-402.93,75.0,100.0
9957,1152064.0,1421331.0,-150.66,-372.94,75.0,100.0
9977,1152090.0,1421321.0,-132.66,-350.71,75.0,100.0
9997,1152056.0,1421352.0,-131.61,-318.61,75.0,100.0
10017,1152052.0,1421363.0,-129.49,-288.85,75.0,100.0
10036,1152075.0,1421351.0,-116.9,-269.45,75.0,100.0
10056,1152057.0,1421353.0,-113.49,-251.45,75.0,100.0
10077,1152067.0,1421344.0,-105.38,-238.51,75.0,100.0
10097,1152064.0,1421361.0,-99.26,-219.46,75.0,100.0
10117,1152090.0,1421378.0,-84.09,-197.35,75.0,100.0
10136,1152099.0,1421362.0,-70.21,-185.82,75.0,100.0
10156,1152071.0,1421332.0,-70.68,-185.82,75.0,100.0
10177,1152098.0,1421372.0,-59.51,-167.12,75.0,100.0
10196,1151944.0,1421039.0,-107.61,-273.33,75.0,100.0
10216,1151940.0,1421001.0,-134.43,-342.25,75.0,100.0
10237,1151958.0,1420974.0,-140.31,-384.12,75.0,100.0
10256,1151928.0,1420949.0,-151.36,-408.58,75.0,100.0
10276,1151744.0,1420484.0,-221.11,-582.29,75.0,100.0
10297,1151746.0,1420487.0,-255.68,-668.26,75.0,100.0
10316,1151786.0,1420508.0,-255.21,-695.08,75.0,100.0
10336,1151717.0,1420479.0,-274.27,-705.31,75.0,100.0
10356,1151756.0,1420497.0,-264.74,-688.49,75.0,100.0
10377,1151752.0,1420388.0,-254.74,-702.72,75.0,100.0
10397,1151719.0,1420387.0,-255.1,-695.19,75.0,100.0
10417,1151722.0,1420397.0,-248.39,-671.44,75.0,100.0
10437,1151712.0,1420379.0,-242.51,-648.86,75.0,100.0
10457,1151724.0,1420346.0,-229.22,-632.98,75.0,100.0
10477,1151733.0,1420382.0,-213.11,-596.4,75.0,100.0
10497,1151708.0,1420377.0,-207.94,-563.35,75.0,100.0
10518,1151716.0,1420395.0,-197.23,-525.01,75.0,100.0
10536,1151702.0,1420371.0,-191.7,-499.49,75.0,100.0
10556,1151661.0,1420245.0,-199.0,-519.13,75.0,100.0
10576,1151661.0,1420289.0,-198.76,-502.67,75.0,100.0
10597,1151675.0,1420241.0,-189.0,-499.02,75.0,100.0
10617,1151685.0,1420265.0,-175.36,-476.79,75.0,100.0
10662,1151686.0,1420248.0,-163.13,-459.27,75.0,100.0
10664,1151666.0,1420275.0,-159.6,-428.81,75.0,100.0
10677,1151662.0,1420297.0,-155.36,-393.52,75.0,100.0
10696,1151679.0,1420288.0,-143.25,-367.41,75.0,100.0
10740,1151686.0,1420290.0,-130.43,-343.19,75.0,100.0
10742,1151693.0,1420314.0,-117.49,-312.61,75.0,100.0
10758,1151692.0,1420298.0,-107.73,-293.67,75.0,100.0
10776,1151693.0,1420315.0,-99.26,-269.8,75.0,100.0
10797,1151689.0,1420328.0,-93.5,-245.1,75.0,100.0
10817,1151692.0,1420316.0,-87.03,-229.58,75.0,100.0
10837,1151695.0,1420319.0,-80.09,-214.4,75.0,100.0
10856,1151695.0,1420300.0,-74.33,-207.58,75.0,100.0
10877,1151690.0,1420328.0,-71.15,-188.76,75.0,100.0
10896,1151705.0,1420330.0,-62.22,-172.89,75.0,100.0
10917,1151725.0,1420357.0,-48.46,-149.95,75.0,100.0
10937,1151730.0,1420371.0,-37.52,-128.2,75.0,100.0
10956,1151708.0,1420383.0,-38.34,-108.44,75.0,100.0
10976,1151743.0,1420372.0,-25.29,-98.44,75.0,100.0
10997,1151703.0,1420386.0,-31.64,-85.39,75.0,100.0
11017,1151591.0,1420025.0,-75.27,-206.88,74.7,100.0
11037,1151589.0,1420004.0,-99.38,-280.03,74.5,100.0
11057,1151559.0,1419981.0,-121.96,-324.25,74.4,100.0
11076,1151546.0,1419965.0,-137.02,-348.13,74.3,100.0
11098,1151387.0,1419592.0,-200.29,-489.49,74.2,100.0
11116,1151384.0,1419574.0,-233.34,-566.53,74.2,100.0
11137,1151407.0,1419555.0,-238.87,-604.99,74.2,100.0
11157,1151442.0,1419544.0,-223.81,-617.45,74.1,100.0
11177,1151400.0,1419559.0,-225.22,-605.11,74.1,100.0
11197,1151350.0,1419469.0,-239.1,-616.87,74.1,100.0
11217,1151359.0,1419471.0,-238.4,-608.87,74.1,100.0
11237,1151379.0,1419472.0,-225.34,-589.93,74.1,100.0
11257,1151341.0,1419468.0,-226.4,-567.0,73.8,100.0
11277,1151374.0,1419469.0,-209.82,-540.54,73.6,100.0
11297,1151375.0,1419473.0,-195.23,-511.37,73.5,100.0
11317,1151361.0,1419486.0,-187.35,-478.2,73.4,100.0
11336,1151367.0,1419459.0,-176.42,-457.86,73.3,100.0
11356,1151385.0,1419494.0,-159.48,-423.04,73.3,100.0
11376,1151394.0,1419494.0,-142.78,-393.17,73.2,100.0
11396,1151378.0,1419496.0,-135.72,-366.24,73.2,100.0
11417,1151357.0,1419498.0,-136.19,-341.66,73.2,100.0
11437,1151390.0,1419515.0,-121.37,-313.43,73.2,100.0
11457,1151396.0,1419474.0,-107.85,-304.85,73.2,100.0
11476,1151429.0,1419578.0,-85.62,-255.21,73.2,100.0
11496,1151420.0,1419596.0,-74.09,-214.17,73.2,100.0
11516,1151424.0,1419597.0,-64.33,-185.12,73.2,100.0
11537,1151419.0,1419594.0,-59.04,-165.24,73.2,100.0
11557,1151482.0,1419709.0,-31.64,-108.2,73.2,100.0
11576,1151454.0,1419692.0,-25.29,-79.03,73.2,100.0
11597,1151463.0,1419701.0,-17.76,-57.04,73.2,100.0
11617,1151479.0,1419700.0,-7.17,-43.4,73.2,100.0
11636,1151468.0,1419717.0,-4.94,-28.34,73.2,100.0
11656,1151512.0,1419820.0,12.47,18.35,73.2,100.0
11676,1151529.0,1419816.0,28.46,43.52,73.2,100.0
11697,1151521.0,1419816.0,34.11,57.04,73.2,100.0
11717,1151529.0,1419800.0,39.52,57.75,73.2,100.0
11736,1151531.0,1419841.0,42.46,71.74,73.2,100.0
11757,1151552.0,1419963.0,50.81,122.43,73.2,100.0
11777,1151574.0,1419983.0,62.45,156.19,73.2,100.0
11796,1151577.0,1419939.0,68.92,156.07,73.2,100.0
11816,1151578.0,1419952.0,71.39,157.24,73.2,100.0
11836,1151501.0,1419748.0,43.16,80.33,73.2,100.0
11856,1151483.0,1419696.0,19.41,15.17,73.2,100.0
11876,1151476.0,1419699.0,2.59,-21.88,73.2,100.0
11897,1151488.0,1419668.0,-2.71,-53.98,73.2,100.0
11917,1151446.0,1419633.0,-21.05,-83.97,73.2,100.0
11937,1151223.0,1419030.0,-112.08,-318.37,73.2,100.0
11957,1151221.0,1419027.0,-162.89,-447.51,73.2,100.0
11977,1151202.0,1419041.0,-195.35,-506.9,73.2,100.0
11997,1151222.0,1419031.0,-202.52,-533.25,73.2,100.0
12017,1151256.0,1419049.0,-189.59,-529.83,73.2,100.0
12037,1151231.0,1419107.0,-187.0,-494.79,73.2,100.0
12057,1151251.0,1419040.0,-173.95,-487.49,73.2,100.0
12077,1151246.0,1419060.0,-164.3,-464.91,73.2,100.0
12097,1151241.0,1419049.0,-156.66,-445.27,73.2,100.0
12117,1151250.0,1419088.0,-145.37,-409.52,73.2,100.0
12137,1151269.0,1419099.0,-128.67,-375.53,73.2,100.0
12157,1151250.0,1419092.0,-122.9,-349.89,73.2,100.0
12176,1151257.0,1419113.0,-114.32,-319.43,73.2,100.0
12197,1151246.0,1419095.0,-110.79,-301.08,73.2,100.0
12217,1151255.0,1419100.0,-102.91,-281.79,73.2,100.0
12236,1151254.0,1419095.0,-96.32,-266.03,73.2,100.0
12257,1151254.0,1419123.0,-90.44,-240.63,73.2,100.0
12276,1151285.0,1419093.0,-73.74,-231.34,73.2,100.0
12296,1151309.0,1419156.0,-53.63,-197.94,73.2,100.0
12317,1151287.0,1419173.0,-48.81,-167.95,73.2,100.0
12337,1151258.0,1419163.0,-55.39,-150.42,73.2,100.0
12357,1151281.0,1419192.0,-49.51,-126.31,73.2,100.0
12377,1151280.0,1419170.0,-45.4,-117.61,73.2,100.0
12396,1151307.0,1419206.0,-32.23,-96.68,73.2,100.0
12416,1151297.0,1419213.0,-27.52,-79.86,73.2,100.0
12438,1151313.0,1419228.0,-18.23,-62.92,73.2,100.0
12457,1151332.0,1419224.0,-5.65,-53.04,73.2,100.0
12476,1151349.0,1419279.0,8.0,-26.23,73.2,100.0
12497,1151335.0,1419288.0,10.58,-6.82,73.2,100.0
12517,1151359.0,1419311.0,20.58,12.82,73.2,100.0
12536,1151356.0,1419315.0,24.82,25.4,73.2,100.0
12557,1151339.0,1419335.0,20.58,39.28,73.2,100.0
12577,1151400.0,1419402.0,39.75,70.8,73.2,100.0
12596,1151390.0,1419369.0,46.34,75.27,73.2,100.0
12616,1151386.0,1419395.0,47.63,85.62,73.2,100.0
12636,1151390.0,1419353.0,48.69,74.45,73.2,100.0
12657,1151393.0,1419389.0,49.4,79.39,73.2,100.0
12677,1151103.0,1418659.0,-56.69,-184.65,73.4,100.0
12697,1151131.0,1418660.0,-106.55,-332.6,73.6,100.0
12717,1151121.0,1418635.0,-136.55,-419.63,73.8,100.0
12736,1151111.0,1418611.0,-154.3,-469.03,73.9,100.0
12756,1151021.0,1418348.0,-193.7,-582.41,73.9,100.0
12777,1150978.0,1418347.0,-227.81,-634.86,74.0,100.0
12797,1150992.0,1418359.0,-237.1,-646.39,74.0,100.0
12817,1150954.0,1418325.0,-250.86,-650.62,74.0,100.0
12836,1151006.0,1418345.0,-234.28,-630.98,74.0,100.0
12857,1150914.0,1418225.0,-252.74,-648.86,74.0,100.0
12876,1150949.0,1418232.0,-244.98,-641.8,74.3,100.0
12896,1150919.0,1418221.0,-245.81,-627.1,74.5,100.0
12916,1150952.0,1418245.0,-228.63,-595.58,74.7,100.0
12937,1150965.0,1418300.0,-208.76,-543.83,74.8,100.0
12957,1150966.0,1418312.0,-192.18,-497.26,74.8,100.0
12977,1150932.0,1418325.0,-190.53,-454.21,74.9,100.0
12994,1150957.0,1418331.0,-176.06,-416.81,74.9,100.0
13017,1150982.0,1418327.0,-154.78,-387.06,74.9,100.0
13035,1150986.0,1418401.0,-137.37,-334.13,75.0,100.0
13057,1151011.0,1418399.0,-115.14,-296.73,75.0,100.0
13077,1150970.0,1418427.0,-114.55,-258.15,75.0,100.0
13097,1151028.0,1418417.0,-90.44,-233.69,75.0,100.0
13117,1151082.0,1418581.0,-54.92,-154.66,75.0,100.0
13137,1151055.0,1418605.0,-42.93,-96.68,75.0,100.0
13156,1151055.0,1418643.0,-34.93,-47.16,75.0,100.0
13177,1151094.0,1418631.0,-15.41,-21.76,75.0,100.0
13194,1151087.0,1418606.0,-6.35,-15.76,75.0,100.0
13215,1151129.0,1418733.0,14.35,34.22,75.0,100.0
13260,1151142.0,1418753.0,30.7,69.63,75.0,100.0
13260,1151148.0,1418755.0,41.63,89.15,75.0,100.0
13275,1151119.0,1418738.0,36.46,92.21,75.0,100.0
13295,1151140.0,1418757.0,40.22,98.79,75.0,100.0
13317,1151206.0,1418908.0,65.51,155.13,75.0,100.0
13335,1151191.0,1418912.0,73.15,185.59,75.0,100.0
13356,1151219.0,1418916.0,86.09,200.41,75.0,100.0
13375,1151223.0,1418905.0,93.03,200.41,75.0,100.0
13391,1151048.0,1418456.0,31.4,32.81,75.9,100.0
13417,1151021.0,1418430.0,-14.82,-74.09,76.5,100.0
13436,1151038.0,1418441.0,-35.05,-130.31,76.9,100.0
13456,1151013.0,1418388.0,-54.92,-179.0,77.2,100.0
13475,1150989.0,1418409.0,-73.86,-195.47,77.4,100.0
13497,1150966.0,1418277.0,-91.5,-248.39,77.6,100.0
13517,1150959.0,1418262.0,-102.09,-278.74,77.7,100.0
13536,1150967.0,1418266.0,-103.03,-288.5,77.8,100.0
13556,1150972.0,1418278.0,-99.38,-283.21,77.8,100.0
13576,1150954.0,1418228.0,-101.5,-291.91,77.8,100.0
13595,1150965.0,1418244.0,-96.44,-284.38,77.9,100.0
13611,1150949.0,1418263.0,-97.15,-266.62,77.9,100.0
13636,1150948.0,1418246.0,-95.73,-256.51,77.9,100.0
13654,1150960.0,1418243.0,-88.33,-245.92,77.9,100.0
13675,1150965.0,1418303.0,-80.33,-212.29,77.9,100.0
13697,1150976.0,1418333.0,-69.86,-177.12,77.9,100.0
13716,1150985.0,1418324.0,-58.92,-156.07,78.9,100.0
13736,1150984.0,1418332.0,-51.63,-137.49,79.5,100.0
13757,1150970.0,1418296.0,-51.28,-136.66,80.0,100.0
13777,1150961.0,1418279.0,-53.16,-139.25,80.3,100.0
13791,1150967.0,1418306.0,-50.81,-127.72,80.5,100.0
13817,1150970.0,1418296.0,-47.16,-121.84,80.7,100.0
13836,1150961.0,1418311.0,-47.28,-110.2,80.8,100.0
13855,1151013.0,1418441.0,-27.4,-53.75,80.9,100.0
13876,1151014.0,1418437.0,-14.94,-21.41,81.0,100.0
13894,1151020.0,1418442.0,-5.17,-0.35,81.0,100.0
13914,1150961.0,1418451.0,-20.82,15.05,81.0,100.0
13936,1151015.0,1418438.0,-9.88,18.82,81.0,100.0
13954,1151067.0,1418529.0,15.64,53.75,81.1,100.0
13972,1151066.0,1418544.0,29.64,78.09,81.1,100.0
13996,1151060.0,1418543.0,34.93,89.97,81.1,100.0
14017,1151068.0,1418562.0,39.99,101.73,81.1,100.0
14037,1151088.0,1418572.0,49.28,109.85,81.1,100.0
14054,1151064.0,1418563.0,44.81,108.79,81.1,100.0
14076,1151054.0,1418546.0,37.52,99.5,81.1,100.0
14096,1151098.0,1418579.0,48.46,103.85,81.1,100.0
14114,1151078.0,1418585.0,46.46,106.2,81.1,100.0
14137,1151082.0,1418603.0,45.75,111.73,81.1,100.0
14156,1151077.0,1418609.0,42.34,114.55,81.1,100.0
14174,1151083.0,1418602.0,41.75,110.91,81.1,100.0
14197,1151098.0,1418595.0,45.87,103.73,81.1,100.0
14217,1150851.0,1418013.0,-42.46,-114.08,80.1,100.0
14236,1150864.0,1417957.0,-87.97,-257.68,79.5,100.0
14255,1150841.0,1417952.0,-120.55,-336.48,79.0,100.0
14275,1150831.0,1417949.0,-140.19,-375.53,78.7,100.0
14297,1150858.0,1417950.0,-138.66,-389.17,78.5,100.0
14315,1150813.0,1417885.0,-150.89,-411.64,78.3,100.0
14336,1150814.0,1417872.0,-154.07,-419.99,78.2,100.0
14355,1150804.0,1417889.0,-156.19,-409.05,78.1,100.0
14377,1150785.0,1417881.0,-160.54,-396.35,78.0,100.0
14395,1150812.0,1417859.0,-149.6,-388.0,78.0,100.0
14417,1150865.0,1418006.0,-120.67,-320.96,78.0,100.0
14437,1150871.0,1417998.0,-99.03,-277.8,78.0,100.0
14455,1150878.0,1418008.0,-81.74,-242.87,78.0,100.0
14477,1150849.0,1418012.0,-80.45,-215.7,77.1,100.0
14497,1150852.0,1417979.0,-76.8,-207.11,76.4,100.0
14517,1150846.0,1417953.0,-75.04,-206.76,76.0,100.0
14537,1150831.0,1417991.0,-77.74,-188.06,75.7,100.0
14554,1150868.0,1417977.0,-64.1,-178.06,75.5,100.0
14577,1150864.0,1418012.0,-56.22,-155.48,75.3,100.0
14597,1150852.0,1418005.0,-54.81,-141.49,75.2,100.0
14616,1150865.0,1417972.0,-47.87,-142.07,75.2,100.0
14637,1150855.0,1417991.0,-46.46,-132.43,75.1,100.0
14656,1150845.0,1417971.0,-48.34,-130.9,75.1,100.0
14677,1150906.0,1418032.0,-26.11,-104.91,75.1,100.0
14697,1150889.0,1418066.0,-18.82,-75.15,75.0,100.0
14715,1150887.0,1418042.0,-15.05,-65.04,75.0,100.0
14738,1150881.0,1418090.0,-14.58,-40.22,75.0,100.0
14757,1150906.0,1418071.0,-4.94,-31.87,75.0,100.0
14775,1150894.0,1418101.0,-3.65,-15.41,75.0,100.0
14796,1150916.0,1418112.0,5.17,-1.53,75.0,100.0
14816,1150921.0,1418122.0,12.0,10.11,75.0,100.0
14837,1150897.0,1418076.0,6.94,-0.12,75.0,100.0
14855,1150904.0,1418108.0,6.47,5.65,75.0,100.0
14876,1150851.0,1418016.0,-13.17,-24.58,75.0,100.0
14897,1150863.0,1418015.0,-19.88,-41.87,75.0,100.0
14917,1150843.0,1418025.0,-30.58,-47.28,75.0,100.0
14937,1150845.0,1418032.0,-35.4,-46.69,75.0,100.0
14956,1150862.0,1418034.0,-31.17,-44.69,75.0,100.0
14977,1150856.0,1418026.0,-30.11,-45.4,75.0,100.0
14997,1150869.0,1418042.0,-24.23,-38.93,75.0,100.0
15017,1150846.0,1417995.0,-28.58,-51.28,75.0,100.0
15037,1150842.0,1418015.0,-31.87,-49.98,75.0,100.0
15057,1150572.0,1417331.0,-131.14,-296.5,77.2,100.0
15077,1150555.0,1417299.0,-191.59,-443.86,78.7,100.0
15096,1150558.0,1417291.0,-221.11,-521.72,79.7,100.0
15117,1150550.0,1417294.0,-236.04,-553.83,80.5,100.0
15138,1150548.0,1417278.0,-240.04,-565.59,81.0,100.0
15157,1150596.0,1417327.0,-219.34,-541.6,81.3,100.0
15177,1150580.0,1417330.0,-208.29,-514.31,81.6,100.0
15197,1150567.0,1417301.0,-201.82,-497.26,81.8,100.0
15217,1150571.0,1417330.0,-192.06,-465.62,81.9,100.0
15237,1150570.0,1417339.0,-182.3,-433.39,82.0,100.0
15257,1150573.0,1417375.0,-171.48,-391.88,82.0,100.0
15277,1150563.0,1417340.0,-164.89,-371.65,82.1,100.0
15297,1150577.0,1417379.0,-152.31,-337.31,84.7,100.0
15317,1150594.0,1417374.0,-135.37,-311.55,86.6,100.0
15337,1150602.0,1417446.0,-119.61,-263.33,87.9,100.0
15357,1150596.0,1417425.0,-109.97,-237.22,88.8,100.0
15377,1150605.0,1417382.0,-98.56,-232.28,89.4,100.0
15397,1150594.0,1417406.0,-93.74,-215.34,89.9,100.0
15417,1150611.0,1417426.0,-82.68,-193.47,90.2,100.0
15437,1150603.0,1417427.0,-77.15,-176.06,90.4,100.0
15456,1150594.0,1417456.0,-75.51,-151.48,90.6,100.0
15477,1150609.0,1417432.0,-67.39,-142.54,90.7,100.0
15496,1150616.0,1417440.0,-58.69,-131.14,90.7,100.0
15516,1150608.0,1417457.0,-55.28,-115.38,90.8,100.0
15537,1150625.0,1417473.0,-45.75,-97.85,90.8,100.0
15557,1150627.0,1417498.0,-38.46,-76.45,90.8,100.0
15577,1150630.0,1417502.0,-32.34,-60.92,90.9,100.0
15597,1150686.0,1417601.0,-7.76,-14.58,90.9,100.0
15617,1150657.0,1417620.0,-3.88,19.41,90.9,100.0
15637,1150680.0,1417588.0,6.82,26.93,90.9,100.0
15657,1150684.0,1417588.0,14.35,30.58,90.9,100.0
15677,1150673.0,1417618.0,14.35,43.05,90.9,100.0
15734,1150688.0,1417618.0,19.52,49.16,90.9,100.0
15736,1150699.0,1417647.0,25.99,62.1,90.9,100.0
15737,1150711.0,1417650.0,33.52,69.27,90.9,100.0
15757,1150684.0,1417610.0,27.29,57.28,90.9,100.0
15776,1150721.0,1417658.0,36.46,66.45,90.9,100.0
15797,1150751.0,1417800.0,51.87,121.84,90.9,100.0
15817,1150730.0,1417774.0,51.98,141.72,90.9,100.0
15836,1150744.0,1417780.0,55.98,152.19,90.9,100.0
15857,1150753.0,1417794.0,60.22,159.83,90.9,100.0
15876,1150553.0,1417219.0,-11.29,-48.22,84.8,100.0
15896,1150533.0,1417218.0,-59.63,-167.71,80.5,100.0
15917,1150525.0,1417240.0,-89.15,-224.99,77.6,100.0
15937,1150514.0,1417188.0,-108.08,-271.8,71.6,100.0
15957,1150538.0,1417243.0,-107.85,-272.62,67.4,100.0
15977,1150594.0,1417417.0,-85.03,-203.7,64.5,100.0
15997,1150618.0,1417377.0,-61.04,-173.83,62.5,100.0
16017,1150590.0,1417390.0,-55.98,-147.84,61.0,100.0
16037,1150604.0,1417424.0,-46.69,-117.14,60.0,100.0
16057,1150571.0,1417307.0,-52.34,-139.25,59.3,100.0
16077,1150555.0,1417329.0,-60.22,-140.78,58.8,100.0
16097,1150541.0,1417333.0,-68.45,-137.02,58.5,100.0
16117,1150598.0,1417330.0,-51.04,-132.78,58.3,100.0
16137,1150587.0,1417336.0,-43.75,-125.14,58.1,100.0
16157,1150667.0,1417465.0,-9.53,-71.04,58.0,100.0
16177,1150628.0,1417473.0,-3.65,-35.28,57.9,100.0
16197,1150666.0,1417474.0,13.64,-13.41,57.8,100.0
16217,1150653.0,1417457.0,18.58,-6.59,57.8,100.0
16237,1150659.0,1417385.0,23.29,-28.7,57.8,100.0
16257,1150605.0,1417449.0,5.76,-17.64,57.7,100.0
16277,1150652.0,1417453.0,12.58,-9.29,57.7,100.0
16297,1150639.0,1417459.0,11.53,-2.12,57.7,100.0
16317,1150644.0,1417442.0,12.47,-4.12,57.7,100.0
16337,1150657.0,1417524.0,17.52,24.58,57.7,100.0
16356,1150658.0,1417544.0,20.35,47.99,57.7,100.0
16376,1150653.0,1417530.0,19.76,55.28,57.7,100.0
16397,1150668.0,1417537.0,24.35,60.69,57.7,100.0
16416,1150669.0,1417529.0,26.82,59.51,57.7,100.0
16437,1150734.0,1417702.0,51.28,120.32,57.7,100.0
16457,1150713.0,1417688.0,56.57,147.72,57.7,100.0
16477,1150725.0,1417705.0,62.8,166.3,57.7,100.0
16497,1150763.0,1417698.0,78.68,170.65,57.7,100.0
16517,1150746.0,1417844.0,79.86,222.28,57.7,100.0
16536,1150778.0,1417832.0,90.32,242.75,57.7,100.0
16557,1150808.0,1417871.0,105.26,263.21,57.7,100.0
16577,1150800.0,1417831.0,108.55,254.51,57.7,100.0
16597,1150774.0,1417845.0,98.56,248.75,57.7,100.0
16617,1150674.0,1417561.0,54.1,136.66,61.1,100.0
16637,1150675.0,1417557.0,27.64,67.27,63.4,100.0
16657,1150678.0,1417522.0,12.82,12.94,65.1,100.0
16677,1150669.0,1417515.0,0.71,-21.41,66.3,100.0
16698,1150590.0,1417303.0,-34.93,-117.61,72.1,100.0
16717,1150579.0,1417336.0,-58.69,-158.66,76.2,100.0
16737,1150632.0,1417339.0,-51.98,-177.59,79.0,100.0
16757,1150570.0,1417335.0,-69.39,-185.94,81.0,100.0
16777,1150577.0,1417332.0,-75.27,-187.71,82.4,100.0
16797,1150667.0,1417477.0,-44.34,-131.72,83.4,100.0
16817,1150662.0,1417500.0,-27.29,-88.09,84.1,100.0
16837,1150644.0,1417478.0,-23.29,-68.8,84.6,100.0
16857,1150649.0,1417502.0,-18.58,-47.4,84.9,100.0
16877,1150623.0,1417472.0,-24.93,-44.81,85.2,100.0
16897,1150708.0,1417573.0,2.82,-5.53,85.3,100.0
16917,1150687.0,1417599.0,11.29,26.7,85.4,100.0
16937,1150680.0,1417575.0,13.29,35.99,85.5,100.0
16957,1150672.0,1417573.0,11.17,39.87,85.6,100.0
16977,1150700.0,1417635.0,19.88,63.63,85.6,100.0
16997,1150712.0,1417614.0,28.81,68.33,85.6,100.0
17017,1150692.0,1417636.0,26.11,77.51,85.7,100.0
17037,1150684.0,1417635.0,21.05,80.56,85.7,100.0
17057,1150706.0,1417660.0,25.52,89.74,85.7,100.0
17077,1150747.0,1417724.0,42.46,116.2,85.7,100.0
17097,1150753.0,1417750.0,53.51,138.31,85.7,100.0
17116,1150755.0,1417734.0,59.39,142.07,85.7,100.0
17137,1150726.0,1417726.0,50.81,138.07,85.7,100.0
17157,1150844.0,1417934.0,87.5,208.17,85.7,100.0
17177,1150842.0,1417914.0,106.08,236.63,85.7,100.0
17197,1150803.0,1417932.0,100.2,254.16,85.7,100.0
17217,1150826.0,1417940.0,102.91,261.45,85.7,100.0
17237,1150844.0,1417942.0,108.67,260.51,85.7,100.0
17258,1150904.0,1418114.0,131.25,316.37,85.7,100.0
17277,1150896.0,1418085.0,138.43,330.96,85.7,100.0
17297,1150877.0,1418099.0,132.43,336.95,85.7,100.0
17317,1150894.0,1418095.0,132.08,331.31,85.7,100.0
17339,1150857.0,1418083.0,115.61,316.02,85.7,100.0
17360,1150906.0,1418066.0,121.14,293.79,85.7,100.0
17376,1150869.0,1418061.0,108.2,272.5,85.0,100.0
17397,1150869.0,1418029.0,98.2,242.28,84.5,100.0
17417,1150872.0,1417961.0,91.38,194.65,84.1,100.0
17436,1150656.0,1417506.0,6.82,-2.59,83.9,100.0
17457,1150682.0,1417508.0,-32.7,-115.73,83.7,100.0
17477,1150674.0,1417513.0,-57.75,-176.65,83.6,100.0
17497,1150650.0,1417487.0,-79.62,-217.23,83.5,100.0
17517,1150653.0,1417513.0,-89.27,-226.4,83.5,100.0
17538,1150635.0,1417413.0,-99.38,-262.74,83.4,100.0
17558,1150617.0,1417430.0,-109.5,-271.56,83.4,100.0
17577,1150616.0,1417438.0,-113.14,-267.56,83.4,100.0
17597,1150628.0,1417437.0,-108.32,-259.57,83.4,100.0
17617,1150683.0,1417570.0,-83.15,-200.76,83.4,100.0
17637,1150701.0,1417566.0,-60.1,-163.6,83.3,100.0
17658,1150644.0,1417582.0,-66.21,-132.66,83.3,100.0
17677,1150671.0,1417550.0,-58.45,-123.26,83.3,100.0
17698,1150686.0,1417574.0,-47.16,-106.32,83.3,100.0
17717,1150680.0,1417614.0,-41.75,-79.62,83.3,100.0
17737,1150711.0,1417648.0,-26.34,-49.98,83.3,100.0
17757,1150692.0,1417630.0,-23.76,-38.34,83.3,100.0
17776,1150747.0,1417606.0,-1.76,-39.52,82.7,100.0
17798,1150754.0,1417647.0,13.53,-24.35,82.2,100.0
17817,1150690.0,1417695.0,-1.18,2.35,81.9,100.0
17837,1150741.0,1417700.0,8.94,19.64,81.6,100.0
17858,1150739.0,1417696.0,13.88,27.64,81.5,100.0
17876,1150719.0,1417698.0,9.06,32.34,81.3,100.0
17897,1150778.0,1417859.0,27.4,92.79,81.3,100.0
17917,1150791.0,1417873.0,42.1,130.67,81.2,100.0
17936,1150828.0,1417864.0,63.16,146.31,81.2,100.0
17957,1150812.0,1417852.0,67.98,147.6,81.1,100.0
17977,1150816.0,1417890.0,70.8,158.89,81.1,100.0
17997,1150883.0,1418013.0,95.03,206.41,81.1,100.0
18017,1150872.0,1418033.0,102.91,236.4,81.1,100.0
18037,1150864.0,1418037.0,102.09,249.69,81.1,100.0
18057,1150884.0,1418012.0,106.67,242.63,81.1,100.0
18077,1150959.0,1418221.0,134.08,308.84,81.1,100.0
18097,1150942.0,1418211.0,140.66,336.6,81.1,100.0
18116,1150963.0,1418249.0,148.89,358.71,81.1,100.0
18137,1150965.0,1418221.0,150.89,353.18,81.1,100.0
18157,1150955.0,1418232.0,145.01,345.77,81.1,100.0
18178,1150760.0,1417726.0,67.51,149.95,79.8,100.0
18197,1150758.0,1417711.0,20.46,27.99,79.0,100.0
18217,1150750.0,1417712.0,-10.0,-42.81,78.3,100.0
18237,1150771.0,1417664.0,-19.76,-100.09,77.9,100.0
18259,1150640.0,1417413.0,-72.57,-222.05,77.6,100.0
18277,1150664.0,1417433.0,-92.79,-280.15,77.4,100.0
18297,1150646.0,1417436.0,-108.79,-306.26,77.3,100.0
18318,1150663.0,1417439.0,-109.38,-313.31,77.2,100.0
18337,1150634.0,1417439.0,-117.73,-310.26,77.1,100.0
18358,1150716.0,1417602.0,-90.09,-242.16,77.0,100.0
18377,1150717.0,1417614.0,-71.74,-193.0,77.0,100.0
18397,1150724.0,1417612.0,-56.92,-160.89,77.0,100.0
18418,1150709.0,1417642.0,-52.57,-127.72,77.0,100.0
18437,1150716.0,1417626.0,-46.34,-111.49,77.0,100.0
18457,1150736.0,1417664.0,-34.46,-85.74,76.9,100.0
18477,1150722.0,1417648.0,-31.87,-74.8,76.9,100.0
18497,1150729.0,1417658.0,-27.05,-63.16,75.8,100.0
18546,1150716.0,1417629.0,-28.34,-65.51,75.0,100.0
18547,1150712.0,1417641.0,-29.99,-60.92,74.5,100.0
18559,1150712.0,1417646.0,-30.23,-55.04,74.1,100.0
18577,1150677.0,1417663.0,-42.46,-44.22,73.8,100.0
18597,1150716.0,1417622.0,-34.34,-51.87,73.6,100.0
18617,1150736.0,1417648.0,-21.64,-45.63,73.5,100.0
18637,1150783.0,1417814.0,3.29,19.29,73.4,100.0
18657,1150775.0,1417785.0,14.7,45.75,73.3,100.0
18677,1150800.0,1417807.0,30.11,67.98,73.3,100.0
18697,1150789.0,1417810.0,34.22,80.45,73.2,100.0
18718,1150826.0,1417944.0,49.28,134.43,73.2,100.0
18737,1150877.0,1417958.0,75.39,167.59,73.2,100.0
18757,1150835.0,1417966.0,73.51,185.94,73.2,100.0
18777,1150850.0,1417960.0,76.21,190.06,73.2,100.0
18796,1150859.0,1417957.0,79.39,187.0,73.2,100.0
18817,1150872.0,1418004.0,83.97,198.06,73.2,100.0
18837,1150891.0,1418030.0,91.74,209.35,73.2,100.0
18857,1150879.0,1418010.0,89.74,203.82,73.2,100.0
18877,1150865.0,1418027.0,81.5,202.29,73.2,100.0
18897,1150885.0,1418039.0,82.09,201.0,73.2,100.0
18917,1150868.0,1417997.0,74.45,180.41,73.2,100.0
18937,1150862.0,1417982.0,66.21,159.01,73.2,100.0
18955,1150848.0,1417958.0,54.81,134.31,74.6,100.0
18977,1150846.0,1417960.0,46.1,117.61,75.6,100.0
18997,1150625.0,1417435.0,-40.11,-85.27,76.3,100.0
19018,1150645.0,1417434.0,-81.74,-200.88,76.8,100.0
19035,1150632.0,1417417.0,-108.67,-269.33,77.1,100.0
19058,1150622.0,1417396.0,-125.37,-310.37,77.4,100.0
19077,1150644.0,1417417.0,-124.2,-319.31,77.5,100.0
19097,1150633.0,1417403.0,-124.67,-322.25,77.6,100.0
19117,1150619.0,1417356.0,-127.14,-333.78,77.7,100.0
19138,1150627.0,1417416.0,-122.79,-310.96,77.8,100.0
19158,1150602.0,1417385.0,-126.55,-302.02,77.8,100.0
19177,1150581.0,1417340.0,-133.37,-306.26,79.5,100.0
19198,1150594.0,1417353.0,-129.61,-296.97,80.6,100.0
19249,1150565.0,1417331.0,-135.02,-292.85,81.4,100.0
19250,1150588.0,1417324.0,-126.67,-286.38,82.0,100.0
19263,1150593.0,1417335.0,-117.14,-272.15,82.4,100.0
19277,1150620.0,1417374.0,-99.15,-243.45,82.7,100.0
19297,1150584.0,1417388.0,-99.62,-216.29,82.9,100.0
19316,1150589.0,1417357.0,-95.73,-206.88,83.0,100.0
19335,1150598.0,1417362.0,-88.09,-194.88,83.1,100.0
19358,1150650.0,1417463.0,-62.8,-146.9,83.2,100.0
19377,1150614.0,1417451.0,-59.75,-120.2,83.2,100.0
19395,1150643.0,1417471.0,-46.1,-94.79,83.3,100.0
19416,1150631.0,1417474.0,-41.63,-76.8,83.3,100.0
19437,1150615.0,1417478.0,-43.87,-63.16,83.3,100.0
19454,1150697.0,1417637.0,-14.35,3.88,83.3,100.0
19477,1150683.0,1417614.0,-2.12,34.22,83.3,100.0
19497,1150690.0,1417617.0,7.53,51.98,83.3,100.0
19516,1150717.0,1417600.0,22.7,54.92,83.3,100.0
19536,1150706.0,1417645.0,27.05,71.62,83.3,100.0
19557,1150752.0,1417735.0,45.63,112.44,83.3,100.0
19577,1150745.0,1417718.0,52.81,127.25,83.3,100.0
19594,1150733.0,1417747.0,51.28,143.37,83.3,100.0
19616,1150762.0,1417738.0,59.75,146.19,83.3,100.0
19637,1150830.0,1417917.0,88.09,209.58,83.3,100.0
19657,1150822.0,1417927.0,99.5,244.98,83.3,100.0
19677,1150846.0,1417944.0,112.55,266.03,83.3,100.0
19695,1150830.0,1417910.0,111.73,259.68,83.3,100.0
19716,1150816.0,1417921.0,103.61,254.16,83.3,100.0
19737,1150787.0,1417800.0,85.97,201.23,83.3,100.0
19753,1150748.0,1417761.0,59.75,151.83,81.4,100.0
19777,1150762.0,1417744.0,48.34,113.73,80.1,100.0
19797,1150769.0,1417696.0,43.16,71.74,79.1,100.0
19818,1150664.0,1417400.0,1.06,-61.63,78.5,100.0
19837,1150606.0,1417427.0,-44.46,-127.49,78.0,100.0
19858,1150650.0,1417435.0,-53.75,-159.71,77.7,100.0
19878,1150649.0,1417458.0,-58.22,-166.42,77.5,100.0
19896,1150658.0,1417480.0,-56.22,-158.42,77.3,100.0
19917,1150669.0,1417530.0,-49.87,-132.08,77.2,100.0
19937,1150679.0,1417526.0,-41.4,-115.26,77.1,100.0
19957,1150653.0,1417518.0,-44.93,-105.85,77.0,100.0
19978,1150674.0,1417545.0,-38.34,-88.21,77.0,100.0
19997,1150685.0,1417527.0,-29.76,-82.56,77.0,100.0
20017,1150744.0,1417675.0,-2.59,-23.64,77.0,100.0
20035,1150742.0,1417663.0,12.35,6.59,77.0,100.0
20055,1150758.0,1417682.0,26.58,30.81,75.3,100.0
20077,1150718.0,1417666.0,19.76,38.34,74.1,100.0
20097,1150712.0,1417618.0,13.05,24.46,73.3,100.0
20116,1150732.0,1417553.0,16.11,-7.76,72.8,100.0
20136,1150709.0,1417611.0,9.17,-5.17,72.4,100.0
20153,1150708.0,1417595.0,4.59,-9.29,72.1,100.0
20178,1150706.0,1417596.0,1.18,-11.06,71.9,100.0
20197,1150755.0,1417710.0,16.94,29.52,71.7,100.0
20217,1150782.0,1417730.0,35.4,59.51,71.7,100.0
20237,1150748.0,1417706.0,32.93,66.8,71.6,100.0
20257,1150778.0,1417732.0,41.63,78.8,71.5,100.0
20276,1150808.0,1417829.0,56.57,119.14,71.5,100.0
20297,1150789.0,1417866.0,57.04,153.25,71.5,100.0
20316,1150818.0,1417876.0,66.57,173.12,71.5,100.0
20337,1150813.0,1417829.0,68.8,163.6,71.5,100.0
20357,1150801.0,1417861.0,63.98,165.95,71.4,100.0
20379,1150865.0,1417976.0,83.15,205.35,71.4,100.0
20396,1150870.0,1417981.0,94.09,225.22,71.4,100.0
20418,1150865.0,1417985.0,96.44,232.99,71.4,100.0
20437,1150865.0,1417992.0,95.62,234.75,71.4,100.0
20460,1150896.0,1418024.0,104.2,242.04,71.4,100.0
20478,1150875.0,1418063.0,99.26,254.86,71.4,100.0
20496,1150881.0,1418028.0,96.21,243.81,71.4,100.0
20513,1150869.0,1418017.0,87.97,227.81,71.4,100.0
20537,1150889.0,1417980.0,88.44,199.82,71.4,100.0
20553,1150757.0,1417720.0,38.81,84.8,72.0,100.0
20577,1150771.0,1417709.0,14.23,12.35,72.3,100.0
20596,1150739.0,1417667.0,-11.88,-45.04,72.6,100.0
20616,1150763.0,1417719.0,-17.99,-58.22,72.8,100.0
20636,1150769.0,1417737.0,-18.94,-58.1,72.9,100.0
20657,1150752.0,1417697.0,-25.17,-71.15,73.0,100.0
20678,1150739.0,1417721.0,-32.81,-68.33,73.0,100.0
20697,1150756.0,1417706.0,-30.46,-70.68,73.1,100.0
20715,1150765.0,1417722.0,-25.05,-64.45,73.6,100.0
20736,1150822.0,1417893.0,-0.59,2.59,74.1,100.0
20755,1150798.0,1417863.0,4.7,30.46,74.3,100.0
20776,1150820.0,1417869.0,15.76,47.99,74.5,100.0
20796,1150830.0,1417883.0,25.4,62.22,74.7,100.0
20817,1150833.0,1417878.0,31.4,67.16,74.8,100.0
20837,1150829.0,1417932.0,32.7,87.97,74.8,100.0
20855,1150828.0,1417927.0,32.46,96.21,74.9,100.0
20877,1150852.0,1417943.0,40.22,104.67,74.9,100.0
20897,1150872.0,1417914.0,51.04,96.56,74.9,100.0
20917,1150883.0,1417919.0,60.1,91.5,75.0,100.0
20937,1150909.0,1418063.0,73.51,138.78,75.0,100.0
20957,1150912.0,1418084.0,80.56,170.53,75.0,100.0
20977,1150928.0,1418117.0,88.68,196.88,75.0,100.0
20997,1150927.0,1418128.0,90.91,211.7,75.0,100.0
21017,1150988.0,1418260.0,112.32,263.45,75.0,100.0
21037,1150989.0,1418306.0,122.55,304.02,75.0,100.0
21057,1150981.0,1418300.0,122.67,318.25,75.0,100.0
21077,1150994.0,1418243.0,124.67,298.61,75.0,100.0
21098,1151010.0,1418298.0,128.78,300.38,75.0,100.0
21117,1151039.0,1418398.0,138.66,330.84,75.0,100.0
21137,1151045.0,1418427.0,143.37,351.42,75.0,100.0
21158,1151069.0,1418415.0,151.6,350.95,75.0,100.0
21177,1151058.0,1418409.0,148.89,340.6,75.0,100.0
21197,1151093.0,1418483.0,156.66,353.65,75.0,100.0
21233,1151064.0,1418476.0,147.01,350.6,75.0,100.0
21237,1151088.0,1418472.0,146.78,339.42,75.0,100.0
21257,1151100.0,1418434.0,147.6,311.31,75.0,100.0
21277,1151034.0,1418440.0,120.79,290.26,76.2,100.0
21297,1150824.0,1417839.0,26.23,53.16,77.0,100.0
21317,1150831.0,1417846.0,-26.34,-82.44,77.6,100.0
21337,1150816.0,1417828.0,-61.63,-165.48,78.0,100.0
21357,1150810.0,1417832.0,-82.8,-208.29,78.3,100.0
21378,1150833.0,1417777.0,-84.68,-248.16,78.5,100.0
21397,1150815.0,1417811.0,-90.44,-253.22,78.6,100.0
21418,1150812.0,1417801.0,-92.79,-254.04,78.7,100.0
21437,1150804.0,1417831.0,-94.91,-237.69,78.8,100.0
21458,1150808.0,1417794.0,-92.44,-236.4,78.8,100.0
21477,1150802.0,1417829.0,-91.15,-217.46,78.9,100.0
21498,1150817.0,1417816.0,-82.92,-206.41,78.9,100.0
21517,1150824.0,1417838.0,-73.62,-187.24,78.9,100.0
21537,1150806.0,1417874.0,-73.15,-158.89,78.9,100.0
21558,1150808.0,1417834.0,-70.45,-153.36,78.9,100.0
21578,1150846.0,1417917.0,-53.63,-116.55,78.9,100.0
21597,1150853.0,1417917.0,-40.11,-92.56,78.9,100.0
21617,1150844.0,1417919.0,-34.58,-75.86,80.3,100.0
21637,1150840.0,1417908.0,-32.11,-68.45,81.2,100.0
21657,1150878.0,1417986.0,-16.11,-34.34,81.8,100.0
21677,1150861.0,1417994.0,-12.7,-10.94,82.3,100.0
21697,1150867.0,1417984.0,-8.35,-0.82,82.6,100.0
21717,1150903.0,1417977.0,7.41,2.47,82.8,100.0
21737,1150884.0,1417997.0,9.53,11.53,83.0,100.0
21757,1151012.0,1418236.0,56.92,103.26,83.1,100.0
21777,1150990.0,1418249.0,75.04,158.66,83.2,100.0
21797,1150983.0,1418262.0,81.27,191.82,83.2,100.0
21818,1150972.0,1418256.0,79.03,204.41,83.2,100.0
21838,1151011.0,1418307.0,89.97,225.46,83.3,100.0
21858,1151051.0,1418367.0,108.91,254.39,83.3,100.0
21877,1151029.0,1418335.0,109.26,253.57,83.3,100.0
21898,1151046.0,1418323.0,113.14,243.1,83.3,100.0
21918,1151026.0,1418345.0,105.61,239.45,83.3,100.0
21938,1151087.0,1418493.0,121.02,285.68,83.3,100.0
21957,1151099.0,1418523.0,131.49,316.72,83.3,100.0
21977,1151084.0,1418502.0,129.14,319.78,83.3,100.0
21998,1151095.0,1418471.0,128.78,302.96,83.3,100.0
22018,1151112.0,1418483.0,131.72,290.73,83.3,100.0
22037,1150945.0,1418116.0,69.86,143.84,82.3,100.0
22058,1150922.0,1418098.0,24.23,49.16,81.6,100.0
22077,1150906.0,1418052.0,-8.59,-23.4,81.1,100.0
22098,1150958.0,1418038.0,-8.47,-69.86,80.8,100.0
22118,1150761.0,1417770.0,-79.74,-192.41,80.6,100.0
22138,1150790.0,1417760.0,-108.55,-262.51,80.4,100.0
22158,1150827.0,1417779.0,-109.26,-290.03,80.3,100.0
22178,1150772.0,1417762.0,-127.14,-305.55,80.2,100.0
22198,1150809.0,1417781.0,-121.14,-300.61,80.1,100.0
22218,1150812.0,1417809.0,-113.85,-280.74,80.1,100.0
22238,1150809.0,1417813.0,-108.2,-261.45,80.1,100.0
22258,1150781.0,1417811.0,-112.67,-245.1,80.0,100.0
22278,1150794.0,1417823.0,-107.85,-225.69,80.0,100.0
22298,1150829.0,1417887.0,-89.97,-186.18,80.0,100.0
22317,1150824.0,1417916.0,-79.39,-148.42,80.0,100.0
22337,1150798.0,1417895.0,-80.92,-130.78,80.0,100.0
22358,1150828.0,1417890.0,-68.92,-119.49,79.1,100.0
22378,1150840.0,1417892.0,-56.1,-109.5,78.4,100.0
22398,1150798.0,1417804.0,-62.69,-133.25,78.0,100.0
22418,1150768.0,1417764.0,-75.86,-158.42,77.7,100.0
22437,1150782.0,1417785.0,-76.68,-161.6,77.4,100.0
22457,1150783.0,1417790.0,-75.04,-158.07,77.3,100.0
22479,1150842.0,1417902.0,-50.93,-111.73,77.2,100.0
22499,1150831.0,1417908.0,-39.87,-80.33,77.1,100.0
22517,1150876.0,1417911.0,-16.23,-59.28,77.0,100.0
22537,1150864.0,1417930.0,-6.59,-38.81,77.0,100.0
22558,1150837.0,1417965.0,-10.7,-13.29,77.0,100.0
22577,1150938.0,1418084.0,23.87,44.93,77.0,100.0
22598,1150899.0,1418067.0,29.17,71.39,77.0,100.0
22618,1150926.0,1418097.0,41.28,95.85,76.9,100.0
22637,1150936.0,1418027.0,50.93,82.44,76.9,100.0
22657,1150911.0,1418094.0,46.34,97.15,76.9,100.0
22677,1150921.0,1418111.0,46.22,109.61,76.9,100.0
22698,1150904.0,1418091.0,38.93,107.03,76.9,100.0
22717,1150909.0,1418092.0,35.64,103.5,76.9,100.0
22737,1150922.0,1418092.0,37.64,99.03,76.9,100.0
22757,1150949.0,1418185.0,47.75,127.96,76.9,100.0
22778,1150946.0,1418181.0,51.4,140.31,76.9,100.0
22797,1150985.0,1418204.0,66.45,152.54,76.9,100.0
22818,1150952.0,1418164.0,61.75,141.6,76.9,100.0
22837,1150937.0,1418174.0,52.22,135.72,76.9,100.0
22857,1150816.0,1417843.0,1.53,9.17,76.3,100.0
22878,1150816.0,1417817.0,-27.76,-73.74,75.9,100.0
22898,1150796.0,1417792.0,-51.28,-129.02,75.7,100.0
22918,1150773.0,1417788.0,-72.1,-159.48,75.5,100.0
22938,1150685.0,1417515.0,-114.43,-272.5,75.3,100.0
22957,1150676.0,1417570.0,-139.49,-311.67,75.2,100.0
22977,1150702.0,1417551.0,-141.37,-334.01,75.2,100.0
22998,1150700.0,1417548.0,-139.96,-340.48,75.1,100.0
23018,1150706.0,1417558.0,-133.84,-332.84,74.5,100.0
23037,1150707.0,1417591.0,-126.9,-308.84,74.1,100.0
23058,1150704.0,1417585.0,-121.02,-290.14,73.8,100.0
23078,1150714.0,1417586.0,-111.26,-272.27,73.6,100.0
23098,1150729.0,1417632.0,-97.62,-239.1,73.5,100.0
23117,1150712.0,1417588.0,-93.74,-230.4,73.4,100.0
23138,1150761.0,1417757.0,-71.51,-158.77,73.3,100.0
23157,1150769.0,1417756.0,-54.22,-114.08,73.3,100.0
23178,1150757.0,1417746.0,-47.28,-89.38,73.2,100.0
23198,1150762.0,1417729.0,-40.34,-79.15,73.2,100.0
23218,1150755.0,1417739.0,-37.99,-67.74,73.2,100.0
23237,1150771.0,1417748.0,-29.99,-56.45,73.2,100.0
23258,1150778.0,1417767.0,-22.11,-41.75,73.2,100.0
23277,1150758.0,1417766.0,-24.35,-32.7,73.2,100.0
23298,1150774.0,1417746.0,-19.29,-33.99,73.2,100.0
23317,1150803.0,1417836.0,-5.41,-1.29,73.2,100.0
23337,1150808.0,1417828.0,4.59,14.82,73.2,100.0
23357,1150793.0,1417860.0,4.82,35.4,73.2,100.0
23377,1150811.0,1417856.0,11.41,45.04,73.2,100.0
23397,1150858.0,1417963.0,31.99,88.44,73.2,100.0
23417,1150872.0,1417977.0,48.22,116.55,73.2,100.0
23437,1150858.0,1417957.0,51.51,122.79,73.2,100.0
23457,1150859.0,1417979.0,52.57,131.61,73.2,100.0
23477,1150855.0,1417977.0,50.57,133.02,73.2,100.0
23498,1150930.0,1418190.0,75.51,208.05,73.2,100.0
23517,1150950.0,1418181.0,95.38,243.34,73.2,100.0
23538,1150959.0,1418162.0,107.97,251.45,73.2,100.0
23558,1150905.0,1418143.0,93.26,243.45,73.2,100.0
23577,1150965.0,1418186.0,104.32,248.86,73.2,100.0
23598,1150976.0,1418252.0,112.44,270.39,73.2,100.0
23617,1150984.0,1418228.0,117.38,267.92,73.2,100.0
23637,1150954.0,1418214.0,106.67,255.21,73.2,100.0
23658,1150949.0,1418215.0,96.21,242.51,73.2,100.0
23677,1150777.0,1417722.0,25.52,50.57,73.4,100.0
23697,1150771.0,1417733.0,-18.11,-57.39,73.6,100.0
23718,1150737.0,1417719.0,-55.28,-123.61,73.8,100.0
23737,1150764.0,1417737.0,-65.63,-152.54,73.9,100.0
23758,1150787.0,1417744.0,-61.75,-163.24,73.9,100.0
23778,1150834.0,1417928.0,-41.05,-98.91,74.0,100.0
23798,1150839.0,1417920.0,-26.23,-62.33,74.0,100.0
23817,1150845.0,1417914.0,-14.94,-41.99,74.0,100.0
23837,1150824.0,1417941.0,-15.64,-19.41,74.0,100.0
23888,1150845.0,1418003.0,-8.12,16.58,74.0,100.0
23890,1150825.0,1418008.0,-10.82,38.81,74.1,100.0
23903,1150856.0,1418010.0,-0.94,51.4,74.1,100.0
23917,1150858.0,1418023.0,5.41,62.22,74.3,100.0
23937,1150860.0,1418061.0,9.76,80.92,74.5,100.0
23957,1150885.0,1418086.0,21.17,98.91,74.7,100.0
23978,1150877.0,1418102.0,24.23,112.91,74.8,100.0
23997,1150899.0,1418089.0,33.52,113.61,74.8,100.0
24018,1150894.0,1418100.0,36.34,115.49,74.9,100.0
24037,1150894.0,1418112.0,37.16,118.32,74.9,100.0
24057,1150941.0,1418199.0,53.75,148.89,74.9,100.0
24077,1150943.0,1418201.0,62.92,163.83,75.0,100.0
24097,1150915.0,1418204.0,56.57,169.83,75.0,100.0
24118,1150948.0,1418189.0,63.63,164.07,75.0,100.0
24137,1150941.0,1418268.0,63.63,185.71,75.0,100.0
24158,1150965.0,1418247.0,70.92,186.29,75.0,100.0
24177,1150968.0,1418294.0,74.56,199.35,75.0,100.0
24198,1150975.0,1418243.0,77.62,183.94,75.0,100.0
24217,1150977.0,1418288.0,78.33,187.24,75.0,100.0
24237,1151017.0,1418384.0,91.5,219.7,75.0,100.0
24257,1150985.0,1418408.0,85.39,242.16,75.0,100.0
24278,1150983.0,1418397.0,79.15,245.57,75.0,100.0
24297,1151010.0,1418419.0,83.5,250.04,75.0,100.0
24318,1151103.0,1418624.0,117.85,321.19,75.0,100.0
24338,1151076.0,1418613.0,125.25,351.07,75.0,100.0
24358,1151109.0,1418652.0,138.66,374.47,75.0,100.0
24378,1151088.0,1418618.0,135.6,367.18,75.0,100.0
24397,1151088.0,1418626.0,130.78,357.42,75.0,100.0
24418,1150883.0,1418045.0,50.57,132.66,75.6,100.0
24437,1150872.0,1418040.0,-0.94,-2.0,76.0,100.0
24458,1150864.0,1418045.0,-33.64,-77.98,76.3,100.0
24478,1150845.0,1418019.0,-58.57,-129.61,76.5,100.0
24498,1150815.0,1417940.0,-82.68,-185.12,76.6,100.0
24518,1150831.0,1417962.0,-88.8,-204.99,76.7,100.0
24537,1150832.0,1417951.0,-89.85,-215.81,76.8,100.0
24557,1150844.0,1417968.0,-84.21,-210.99,76.8,100.0
24578,1150827.0,1417970.0,-85.15,-202.64,76.8,100.0
24597,1150820.0,1417967.0,-86.21,-194.29,77.5,100.0
24619,1150842.0,1417990.0,-76.92,-176.65,77.9,100.0
24638,1150843.0,1418006.0,-69.39,-156.66,78.2,100.0
24657,1150861.0,1418016.0,-56.92,-137.84,78.4,100.0
24678,1150859.0,1418012.0,-49.16,-125.37,78.6,100.0
24698,1150871.0,1418081.0,-39.16,-90.21,78.7,100.0
24718,1150887.0,1418092.0,-26.7,-63.86,78.8,100.0
24737,1150873.0,1418084.0,-23.99,-50.1,78.8,100.0
24757,1150887.0,1418089.0,-16.82,-39.16,78.9,100.0
24778,1150992.0,1418358.0,25.76,65.74,78.9,100.0
24798,1151000.0,1418357.0,52.69,124.43,78.9,100.0
24818,1150969.0,1418388.0,55.86,166.77,78.9,100.0
24838,1150986.0,1418363.0,62.57,178.3,78.9,100.0
24857,1150990.0,1418380.0,66.57,187.12,78.9,100.0
24878,1151069.0,1418607.0,96.09,270.39,78.9,100.0
24897,1151089.0,1418612.0,118.2,314.14,78.9,100.0
24917,1151080.0,1418640.0,125.02,342.36,78.9,100.0
24938,1151115.0,1418637.0,138.78,349.89,78.9,100.0
24957,1151131.0,1418673.0,149.37,359.18,78.9,100.0
24977,1151099.0,1418665.0,140.43,353.54,78.9,100.0
24998,1151120.0,1418698.0,139.6,354.12,78.9,100.0
25019,1151140.0,1418703.0,143.25,348.24,78.9,100.0
25037,1151107.0,1418693.0,130.19,333.19,78.9,100.0
25057,1151154.0,1418792.0,136.78,352.95,78.9,100.0
25077,1151163.0,1418807.0,140.66,361.77,78.9,100.0
25098,1151152.0,1418794.0,135.72,353.89,78.9,100.0
25119,1151195.0,1418763.0,145.37,330.01,78.9,100.0
25137,1151184.0,1418800.0,143.6,322.02,78.9,100.0
25157,1151120.0,1418642.0,116.08,252.74,79.6,100.0
25177,1151106.0,1418662.0,92.56,214.17,80.0,100.0
25197,1151085.0,1418614.0,69.15,169.59,80.3,100.0
25217,1151065.0,1418581.0,46.69,127.96,80.6,100.0
25238,1150922.0,1418165.0,-19.17,-49.98,80.7,100.0
25258,1150911.0,1418149.0,-60.69,-157.48,80.8,100.0
25278,1150880.0,1418149.0,-94.56,-216.05,80.9,100.0
25298,1151043.0,1418542.0,-52.81,-102.2,81.0,100.0
25318,1150900.0,1418143.0,-79.39,-179.0,81.0,100.0
25338,1150889.0,1418119.0,-96.91,-227.93,81.0,100.0
25357,1150871.0,1418127.0,-111.38,-248.16,81.0,100.0
25377,1150889.0,1418109.0,-110.67,-260.62,81.1,100.0
25398,1150879.0,1418092.0,-111.26,-268.15,81.1,100.0
25418,1150916.0,1418225.0,-95.73,-218.05,81.1,100.0
25438,1150941.0,1418217.0,-75.51,-187.0,81.1,100.0
25458,1150913.0,1418229.0,-72.21,-160.42,81.1,100.0
25478,1150934.0,1418231.0,-61.04,-140.66,81.8,100.0
25497,1150919.0,1418213.0,-58.69,-132.55,82.2,100.0
25518,1150911.0,1418184.0,-58.92,-135.37,82.6,100.0
25538,1150908.0,1418218.0,-58.69,-121.61,82.8,100.0
25558,1150909.0,1418204.0,-56.92,-115.96,83.0,100.0
25577,1150920.0,1418211.0,-50.57,-107.5,83.1,100.0
25599,1150930.0,1418211.0,-42.22,-100.2,83.1,100.0
25617,1150908.0,1418226.0,-44.34,-88.33,83.2,100.0
25638,1150924.0,1418232.0,-38.81,-77.27,83.2,100.0
25658,1150917.0,1418242.0,-37.16,-65.39,83.3,100.0
25677,1150925.0,1418229.0,-32.46,-61.75,83.3,100.0
25697,1150964.0,1418306.0,-14.94,-30.34,83.3,100.0
25717,1150966.0,1418326.0,-3.65,-4.23,83.3,100.0
25737,1150974.0,1418300.0,5.88,1.53,83.3,100.0
25758,1150939.0,1418317.0,-1.53,10.94,83.3,100.0
25777,1150969.0,1418327.0,5.17,19.88,83.3,100.0
25797,1150939.0,1418334.0,-2.0,27.05,83.3,100.0
25817,1150995.0,1418308.0,14.23,21.17,83.3,100.0
25838,1150960.0,1418311.0,10.58,18.23,83.3,100.0
25857,1150981.0,1418330.0,15.88,23.05,83.3,100.0
25878,1151066.0,1418527.0,49.4,96.91,83.3,100.0
25897,1151038.0,1418509.0,57.51,130.78,83.3,100.0
25918,1151049.0,1418559.0,64.92,165.48,83.3,100.0
25938,1151011.0,1418545.0,53.87,176.77,83.3,100.0
25958,1151055.0,1418527.0,62.22,172.65,83.3,100.0
25978,1150826.0,1417977.0,-17.52,-33.4,81.1,100.0
25997,1150824.0,1417917.0,-63.86,-173.36,79.6,100.0
26018,1150787.0,1417918.0,-102.67,-249.92,78.5,100.0
26038,1150801.0,1417895.0,-117.61,-296.85,77.7,100.0
26059,1150688.0,1417629.0,-164.65,-413.87,77.2,100.0
26078,1150682.0,1417670.0,-190.18,-457.03,76.8,100.0
26098,1150694.0,1417667.0,-196.17,-472.68,76.6,100.0
26119,1150691.0,1417675.0,-196.29,-467.97,76.4,100.0
26138,1150706.0,1417671.0,-186.41,-456.09,76.2,100.0
26157,1150678.0,1417614.0,-186.65,-459.5,76.2,100.0
26178,1150680.0,1417636.0,-181.83,-443.04,76.1,100.0
26197,1150679.0,1417602.0,-175.24,-435.63,76.1,100.0
26218,1150685.0,1417664.0,-165.24,-398.93,76.0,100.0
26238,1150678.0,1417634.0,-158.19,-379.53,76.0,100.0
26258,1150704.0,1417688.0,-141.01,-340.01,76.0,100.0
26278,1150689.0,1417697.0,-133.37,-306.26,76.0,100.0
26298,1150712.0,1417671.0,-117.61,-289.09,74.1,100.0
26317,1150698.0,1417664.0,-110.91,-275.21,72.8,100.0
26338,1150666.0,1417617.0,-116.08,-278.03,71.9,100.0
26358,1150673.0,1417615.0,-113.96,-273.91,71.3,100.0
26378,1150679.0,1417618.0,-107.97,-264.15,70.8,100.0
26398,1150653.0,1417647.0,-111.49,-242.04,70.5,100.0
26418,1150695.0,1417671.0,-95.73,-214.99,70.3,100.0
26438,1150673.0,1417612.0,-92.44,-215.93,70.1,100.0
26458,1150697.0,1417611.0,-79.74,-211.82,70.0,100.0
26478,1150676.0,1417642.0,-78.21,-193.47,69.9,100.0
26533,1150670.0,1417638.0,-77.74,-179.83,69.9,100.0
26534,1150714.0,1417726.0,-59.63,-135.96,69.9,100.0
26538,1150698.0,1417712.0,-53.63,-112.67,69.8,100.0
26558,1150708.0,1417741.0,-45.28,-85.97,69.8,100.0
26577,1150729.0,1417723.0,-31.87,-75.15,69.8,100.0
26598,1150726.0,1417726.0,-24.46,-66.1,69.8,100.0
26617,1150739.0,1417732.0,-14.94,-57.28,69.8,100.0
26638,1150725.0,1417724.0,-14.11,-53.63,69.8,100.0
26658,1150752.0,1417760.0,-3.53,-37.28,69.8,100.0
26678,1150753.0,1417726.0,3.06,-39.28,69.8,100.0
26699,1150745.0,1417828.0,3.88,-2.59,69.8,100.0
26718,1150760.0,1417854.0,9.64,28.11,69.8,100.0
26737,1150764.0,1417839.0,14.23,39.75,69.8,100.0
26758,1150758.0,1417856.0,14.35,51.75,69.8,100.0
26778,1150747.0,1417836.0,10.23,50.22,69.8,100.0
26797,1150550.0,1417310.0,-63.98,-142.66,70.3,100.0
26818,1150552.0,1417291.0,-104.67,-257.8,70.6,100.0
26838,1150552.0,1417253.0,-125.73,-332.25,70.9,100.0
26858,1150496.0,1417220.0,-155.48,-379.65,71.6,100.0
26878,1150510.0,1417206.0,-164.07,-403.4,72.0,100.0
26896,1150476.0,1417114.0,-177.59,-441.27,72.4,100.0
26918,1150494.0,1417107.0,-174.89,-455.62,72.6,100.0
26938,1150472.0,1417115.0,-177.24,-450.68,72.8,100.0
26956,1150470.0,1417129.0,-175.36,-432.45,72.9,100.0
26977,1150463.0,1417100.0,-172.77,-422.69,73.0,100.0
26998,1150459.0,1417089.0,-168.77,-411.4,73.0,100.0
27018,1150426.0,1417052.0,-174.53,-408.81,73.1,100.0
27039,1150463.0,1417072.0,-160.42,-390.82,73.1,100.0
27057,1150483.0,1417097.0,-141.37,-362.48,75.8,100.0
27078,1150484.0,1417147.0,-126.78,-319.66,77.7,100.0
27097,1150495.0,1417141.0,-111.49,-289.67,79.1,100.0
27118,1150502.0,1417149.0,-97.62,-262.86,80.0,100.0
27139,1150497.0,1417132.0,-89.15,-247.57,80.7,100.0
27156,1150496.0,1417130.0,-82.56,-233.93,81.1,100.0
27178,1150460.0,1417127.0,-89.85,-221.7,81.4,100.0
27197,1150480.0,1417136.0,-84.8,-206.41,81.7,100.0
27218,1150522.0,1417128.0,-64.69,-195.7,81.8,100.0
27238,1150473.0,1417160.0,-69.39,-173.48,81.9,100.0
27256,1150510.0,1417235.0,-57.04,-129.37,82.0,100.0
27277,1150505.0,1417218.0,-50.45,-107.14,79.4,100.0
27297,1150514.0,1417214.0,-42.22,-93.26,77.5,100.0
27315,1150526.0,1417197.0,-32.23,-89.38,76.2,100.0
27338,1150526.0,1417265.0,-25.64,-60.33,75.3,100.0
27356,1150584.0,1417408.0,-0.24,9.64,74.7,100.0
27377,1150609.0,1417394.0,23.52,44.81,74.2,100.0
27397,1150581.0,1417412.0,26.58,70.57,73.9,100.0
27417,1150603.0,1417399.0,35.75,79.27,73.7,100.0
27438,1150718.0,1417707.0,81.97,194.29,73.5,100.0
27457,1150696.0,1417727.0,98.79,263.45,73.4,100.0
27476,1150746.0,1417738.0,124.43,301.55,73.3,100.0
27498,1150748.0,1417742.0,137.13,318.02,73.3,100.0
27517,1150726.0,1417746.0,133.37,321.78,73.3,100.0
27538,1150735.0,1417737.0,131.37,313.31,73.2,100.0
27556,1150739.0,1417713.0,128.67,292.61,73.2,100.0
27577,1150693.0,1417665.0,107.5,256.51,73.2,100.0
27596,1150691.0,1417632.0,92.09,217.81,74.0,100.0
27618,1150553.0,1417221.0,30.93,41.28,74.6,100.0
27638,1150534.0,1417241.0,-12.0,-54.45,75.0,100.0
27658,1150537.0,1417261.0,-35.4,-101.26,75.3,100.0
27673,1150550.0,1417277.0,-43.4,-120.2,75.5,100.0
27696,1150539.0,1417291.0,-51.04,-123.26,75.6,100.0
27718,1150530.0,1417302.0,-57.51,-118.2,75.7,100.0
27738,1150576.0,1417293.0,-43.28,-115.96,75.8,100.0
27758,1150560.0,1417306.0,-39.87,-107.26,75.8,100.0
27777,1150583.0,1417342.0,-28.58,-86.68,75.9,100.0
27797,1150549.0,1417345.0,-33.87,-71.74,75.9,100.0
27818,1150582.0,1417443.0,-24.11,-25.87,75.9,100.0
27837,1150610.0,1417439.0,-7.76,-0.24,75.9,100.0
27858,1150604.0,1417459.0,-0.35,21.88,76.8,100.0
27874,1150612.0,1417421.0,6.82,20.35,77.5,100.0
27893,1150616.0,1417445.0,12.35,27.64,77.9,100.0
27918,1150620.0,1417464.0,16.7,38.22,78.2,100.0
27938,1150621.0,1417498.0,19.29,55.75,78.4,100.0
27957,1150613.0,1417481.0,17.29,58.45,78.6,100.0
27977,1150625.0,1417469.0,20.11,54.34,78.7,100.0
27994,1150672.0,1417557.0,38.46,82.68,78.8,100.0
28015,1150651.0,1417556.0,40.58,96.79,78.8,100.0
28038,1150648.0,1417576.0,39.75,109.97,78.9,100.0
28058,1150649.0,1417580.0,38.69,116.55,78.9,100.0
28077,1150741.0,1417707.0,70.68,163.71,78.9,100.0
28098,1150768.0,1417761.0,97.26,206.88,78.9,100.0
28117,1150709.0,1417723.0,89.03,213.35,78.9,100.0
28138,1150732.0,1417738.0,90.56,217.7,78.9,100.0
28157,1150724.0,1417732.0,86.44,213.11,78.9,100.0
28176,1150756.0,1417750.0,93.74,212.05,78.9,100.0
28198,1150730.0,1417775.0,86.44,215.7,78.9,100.0
28246,1150760.0,1417765.0,91.15,209.35,78.9,100.0
28249,1150765.0,1417747.0,93.5,194.29,78.9,100.0
28259,1150769.0,1417792.0,94.21,197.47,78.9,100.0
28273,1150833.0,1417997.0,115.73,269.21,78.9,100.0
28298,1150807.0,1417966.0,116.08,293.32,78.9,100.0
28318,1150828.0,1417987.0,121.37,308.26,78.9,100.0
28337,1150840.0,1417978.0,125.96,306.49,78.9,100.0
28357,1150589.0,1417302.0,34.7,53.16,78.3,100.0
28378,1150581.0,1417281.0,-21.76,-102.09,77.9,100.0
28398,1150550.0,1417261.0,-65.16,-196.76,77.6,100.0
28414,1150539.0,1417215.0,-92.68,-263.68,77.4,100.0
28438,1150554.0,1417233.0,-101.03,-289.67,77.3,100.0
28457,1150535.0,1417268.0,-110.44,-285.44,77.2,100.0
28478,1150559.0,1417252.0,-104.67,-282.38,77.1,100.0
28498,1150562.0,1417277.0,-97.85,-265.09,77.0,100.0
28514,1150566.0,1417276.0,-90.21,-249.45,77.0,100.0
28538,1150586.0,1417334.0,-76.56,-213.7,77.0,100.0
28558,1150619.0,1417318.0,-54.92,-193.94,77.0,100.0
28577,1150554.0,1417333.0,-64.69,-172.65,77.0,100.0
28598,1150582.0,1417349.0,-58.69,-150.54,76.9,100.0
28618,1150619.0,1417369.0,-40.58,-127.14,76.9,100.0
28637,1150654.0,1417410.0,-16.47,-95.85,76.9,100.0
28658,1150638.0,1417410.0,-7.88,-75.62,76.9,100.0
28675,1150631.0,1417427.0,-5.29,-55.98,76.4,100.0
28697,1150649.0,1417407.0,2.82,-50.57,75.9,100.0
28717,1150649.0,1417448.0,7.53,-31.52,75.7,100.0
28738,1150625.0,1417464.0,1.29,-13.88,75.5,100.0
28758,1150658.0,1417455.0,9.64,-6.7,75.3,100.0
28775,1150659.0,1417491.0,14.58,10.58,75.2,100.0
28797,1150659.0,1417466.0,17.17,11.41,75.2,100.0
28814,1150681.0,1417554.0,26.23,43.52,75.1,100.0
28836,1150678.0,1417557.0,29.76,62.22,75.1,100.0
28856,1150692.0,1417549.0,36.22,68.68,75.1,100.0
28878,1150696.0,1417518.0,40.58,59.51,75.0,100.0
28898,1150675.0,1417564.0,34.58,69.63,75.0,100.0
28918,1150731.0,1417673.0,50.69,113.38,75.0,100.0
28938,1150722.0,1417700.0,55.63,145.95,75.0,100.0
28957,1150714.0,1417696.0,54.22,160.07,75.0,100.0
28978,1150754.0,1417681.0,66.69,159.13,75.0,100.0
28998,1150788.0,1417775.0,84.68,189.0,75.0,100.0
29018,1150757.0,1417804.0,81.86,212.52,75.0,100.0
29038,1150776.0,1417786.0,85.39,214.76,75.0,100.0
29058,1150792.0,1417799.0,91.27,215.81,75.0,100.0
29078,1150781.0,1417797.0,88.56,210.88,75.0,100.0
29098,1150798.0,1417854.0,91.03,223.81,75.0,100.0
29117,1150816.0,1417824.0,97.03,215.23,75.0,100.0
29138,1150771.0,1417831.0,81.86,208.05,75.0,100.0
29158,1150786.0,1417793.0,76.68,185.24,75.0,100.0
29179,1150442.0,1416860.0,-52.92,-170.89,75.3,100.0
29198,1150399.0,1416928.0,-142.19,-348.01,75.5,100.0
29219,1150415.0,1416899.0,-184.77,-453.03,75.6,100.0
29238,1150416.0,1416864.0,-204.76,-516.07,75.7,100.0
29259,1150425.0,1416898.0,-208.41,-528.42,75.8,100.0
29294,1150409.0,1416861.0,-211.58,-536.89,75.8,100.0
29298,1150390.0,1416821.0,-215.46,-544.07,75.9,100.0
29318,1150376.0,1416838.0,-217.93,-529.6,75.9,100.0
29338,1150380.0,1416840.0,-212.87,-508.55,75.9,100.0
29358,1150398.0,1416841.0,-198.53,-484.32,75.9,100.0
29378,1150368.0,1416773.0,-196.64,-483.97,75.9,100.0
29399,1150358.0,1416763.0,-194.65,-476.44,75.9,100.0
29418,1150373.0,1416747.0,-183.59,-467.03,75.9,100.0
29438,1150348.0,1416749.0,-182.18,-450.21,76.2,100.0
29458,1150378.0,1416788.0,-166.18,-416.11,76.4,100.0
29479,1150396.0,1416776.0,-146.66,-391.17,76.6,100.0
29498,1150410.0,1416826.0,-126.9,-349.66,76.7,100.0
29519,1150380.0,1416796.0,-123.49,-328.6,76.8,100.0
29538,1150411.0,1416782.0,-107.5,-314.02,76.8,100.0
29558,1150254.0,1416471.0,-152.78,-411.4,76.8,100.0
29579,1150221.0,1416453.0,-187.47,-464.8,76.9,100.0
29598,1150234.0,1416434.0,-198.53,-491.85,76.9,100.0
29618,1150233.0,1416435.0,-200.64,-495.96,76.9,100.0
29638,1150171.0,1416261.0,-219.81,-550.18,76.9,100.0
29658,1150147.0,1416274.0,-234.75,-564.18,76.9,100.0
29678,1150158.0,1416263.0,-233.93,-563.35,76.9,100.0
29698,1150178.0,1416294.0,-220.75,-538.89,76.9,100.0
29719,1150165.0,1416286.0,-212.87,-515.37,76.9,100.0
29738,1150252.0,1416482.0,-171.95,-418.81,76.9,100.0
29758,1150258.0,1416477.0,-142.19,-355.3,76.9,100.0
29777,1150276.0,1416512.0,-115.26,-297.67,76.9,100.0
29798,1150266.0,1416469.0,-100.67,-273.21,76.9,100.0
29818,1150256.0,1416483.0,-93.5,-247.8,76.9,100.0
29838,1150353.0,1416746.0,-52.1,-131.96,76.9,100.0
29858,1150364.0,1416750.0,-23.05,-60.57,76.9,100.0
29878,1150347.0,1416768.0,-11.76,-11.41,76.9,100.0
29898,1150370.0,1416796.0,3.29,27.4,76.9,100.0
29918,1150632.0,1417380.0,107.03,261.21,76.9,100.0
29938,1150632.0,1417393.0,164.54,395.05,76.9,100.0
29958,1150585.0,1417384.0,176.89,460.09,76.9,100.0
29978,1150652.0,1417374.0,204.41,483.61,76.9,100.0
29998,1150650.0,1417395.0,214.87,493.85,76.9,100.0
30018,1150269.0,1416433.0,77.62,139.13,75.3,100.0
30038,1150247.0,1416404.0,-11.41,-79.5,74.1,100.0
30058,1150230.0,1416366.0,-68.68,-217.81,73.3,100.0
30078,1150227.0,1416321.0,-101.26,-309.2,71.3,100.0
30099,1149988.0,1415869.0,-204.52,-519.01,69.9,100.0
30118,1149970.0,1415888.0,-266.15,-621.45,68.9,100.0
30139,1150018.0,1415875.0,-278.27,-671.32,68.3,100.0
30158,1150019.0,1415843.0,-278.5,-696.37,67.8,100.0
30179,1150008.0,1415874.0,-276.27,-683.67,67.4,100.0
30198,1149858.0,1415584.0,-323.19,-766.0,67.2,100.0
30219,1149880.0,1415581.0,-334.95,-797.28,67.0,100.0
30238,1149853.0,1415564.0,-343.89,-803.28,66.9,100.0
30259,1149850.0,1415524.0,-342.25,-802.93,66.9,100.0
30279,1149911.0,1415551.0,-311.43,-774.58,66.8,100.0
30298,1149776.0,1415446.0,-335.42,-778.7,66.8,100.0
30318,1149799.0,1415445.0,-333.31,-763.64,66.7,100.0
30338,1149788.0,1415435.0,-328.49,-741.18,66.7,100.0
30359,1149781.0,1415416.0,-320.72,-718.13,66.7,100.0
30378,1149755.0,1415349.0,-318.37,-712.84,66.7,100.0
30399,1149782.0,1415340.0,-299.91,-696.84,66.7,100.0
30419,1149772.0,1415357.0,-286.03,-665.56,66.7,100.0
30438,1149760.0,1415316.0,-275.91,-647.09,66.7,100.0
30459,1149771.0,1415338.0,-259.68,-613.69,66.7,100.0
30478,1149777.0,1415395.0,-242.16,-559.71,66.7,100.0
30498,1149765.0,1415382.0,-230.87,-520.43,66.7,100.0
30519,1149772.0,1415382.0,-216.52,-485.85,66.7,100.0
30538,1149777.0,1415381.0,-201.58,-455.27,66.7,100.0
30559,1149832.0,1415558.0,-168.42,-362.83,66.7,100.0
30578,1149859.0,1415558.0,-135.49,-301.2,66.7,100.0
30599,1149843.0,1415592.0,-119.26,-246.39,66.7,100.0
30618,1149841.0,1415577.0,-107.85,-214.52,66.7,100.0
30638,1149844.0,1415557.0,-97.73,-198.41,66.7,100.0
30658,1149950.0,1415822.0,-51.16,-88.44,66.7,100.0
30678,1149951.0,1415826.0,-22.7,-21.41,66.7,100.0
30698,1149946.0,1415837.0,-7.64,21.88,66.7,100.0
30718,1149980.0,1415836.0,13.64,45.99,66.7,100.0
30739,1150062.0,1416034.0,55.39,130.78,66.7,100.0
30758,1150030.0,1416101.0,66.57,201.0,66.7,100.0
30778,1150063.0,1416098.0,83.62,235.93,66.7,100.0
30798,1150053.0,1416068.0,87.85,239.81,66.7,100.0
30819,1150085.0,1416100.0,99.97,248.16,66.7,100.0
30838,1149848.0,1415553.0,18.7,48.69,67.6,100.0
30857,1149850.0,1415530.0,-27.99,-75.86,68.2,100.0
30878,1149823.0,1415510.0,-64.1,-153.48,68.7,100.0
30898,1149836.0,1415470.0,-78.8,-209.35,70.0,100.0
30919,1149841.0,1415456.0,-83.62,-241.92,71.0,100.0
30939,1149779.0,1415272.0,-107.14,-321.9,71.6,100.0
30958,1149763.0,1415270.0,-124.08,-361.53,72.1,100.0
30978,1149739.0,1415300.0,-139.72,-365.3,72.4,100.0
30999,1149769.0,1415304.0,-134.78,-357.65,72.6,100.0
31016,1149682.0,1415145.0,-160.3,-402.82,72.8,100.0
31038,1149684.0,1415135.0,-170.65,-423.4,72.9,100.0
31054,1149665.0,1415174.0,-179.71,-411.52,73.0,100.0
31078,1149676.0,1415142.0,-176.89,-406.81,73.0,100.0
31099,1149708.0,1415141.0,-159.48,-395.29,73.1,100.0
31117,1149681.0,1415184.0,-155.6,-363.89,73.1,100.0
31138,1149697.0,1415222.0,-144.07,-323.66,73.1,100.0
31155,1149691.0,1415184.0,-136.31,-306.85,73.1,100.0
31179,1149694.0,1415176.0,-127.61,-293.08,73.1,100.0
31195,1149698.0,1415179.0,-118.2,-277.33,73.2,100.0
31218,1149738.0,1415208.0,-95.62,-251.45,73.2,100.0
31238,1149688.0,1415202.0,-98.56,-232.99,73.2,100.0
31259,1149684.0,1415192.0,-99.38,-220.52,73.2,100.0
31278,1149698.0,1415181.0,-92.44,-212.29,73.2,100.0
31296,1149779.0,1415459.0,-57.04,-101.73,73.2,100.0
31317,1149833.0,1415459.0,-15.64,-35.52,73.2,100.0
31339,1149828.0,1415468.0,6.82,6.82,73.2,100.0
31356,1149832.0,1415488.0,21.17,38.46,73.2,100.0
31379,1149839.0,1415487.0,31.4,55.51,73.2,100.0
31399,1149971.0,1415827.0,84.56,187.47,73.2,100.0
31416,1149970.0,1415831.0,112.91,260.98,73.2,100.0
31438,1149979.0,1415830.0,130.08,297.08,73.2,100.0
31456,1149973.0,1415851.0,134.9,318.84,73.2,100.0
31477,1150064.0,1416062.0,167.59,400.7,73.2,100.0
31498,1150050.0,1416061.0,177.59,438.57,73.2,100.0
31519,1150056.0,1416069.0,181.47,453.39,73.2,100.0
31538,1150044.0,1416079.0,175.24,455.15,73.2,100.0
31559,1150092.0,1416094.0,185.12,451.15,73.2,100.0
31579,1150055.0,1415979.0,173.12,396.82,73.2,100.0
31596,1150023.0,1415934.0,150.66,340.13,73.2,100.0
31619,1150003.0,1415905.0,126.9,289.09,74.6,100.0
31638,1149995.0,1415885.0,107.38,245.81,75.6,100.0
31655,1149746.0,1415244.0,3.29,-17.64,76.3,100.0
31679,1149756.0,1415225.0,-53.4,-176.3,76.8,100.0
31699,1149725.0,1415267.0,-96.09,-248.63,77.1,100.0
31717,1149739.0,1415225.0,-113.49,-300.14,77.4,100.0
31738,1149743.0,1415238.0,-119.61,-318.25,77.5,100.0
31758,1149723.0,1415229.0,-127.61,-324.72,77.6,100.0
31779,1149771.0,1415222.0,-111.97,-323.66,77.7,100.0
31798,1149738.0,1415236.0,-112.32,-310.49,77.8,100.0
31818,1149748.0,1415251.0,-106.32,-290.38,77.8,100.0
31839,1149772.0,1415343.0,-91.74,-238.75,77.9,100.0
31858,1149778.0,1415317.0,-79.03,-212.99,77.9,100.0
31879,1149779.0,1415320.0,-69.51,-192.06,77.9,100.0
31897,1149784.0,1415313.0,-60.57,-178.06,77.9,100.0
31948,1149761.0,1415315.0,-62.45,-165.24,79.5,100.0
31950,1149839.0,1415460.0,-33.87,-101.5,80.7,100.0
31961,1149849.0,1415480.0,-12.94,-55.04,81.5,100.0
31978,1149855.0,1415504.0,1.76,-18.11,82.0,100.0
31996,1149780.0,1415338.0,-17.05,-56.69,82.4,100.0
32013,1149853.0,1415508.0,-1.06,-16.0,82.7,100.0
32038,1149966.0,1415754.0,49.28,97.15,82.9,100.0
32058,1149958.0,1415764.0,74.33,163.95,83.0,100.0
32079,1149966.0,1415732.0,90.09,187.24,83.1,100.0
32097,1149963.0,1415760.0,95.97,206.52,83.2,100.0
32118,1150010.0,1415896.0,114.32,262.39,83.2,100.0
32138,1150029.0,1415907.0,129.25,292.61,83.3,100.0
32158,1150005.0,1415903.0,126.2,302.02,83.3,100.0
32179,1150011.0,1415874.0,123.73,290.03,83.3,100.0
32198,1150026.0,1415895.0,124.9,284.03,83.3,100.0
32218,1150135.0,1416130.0,162.3,359.42,83.3,100.0
32238,1150110.0,1416139.0,171.12,397.99,83.3,100.0
32259,1150106.0,1416143.0,170.89,412.69,83.3,100.0
32278,1150124.0,1416145.0,173.36,412.58,83.3,100.0
32298,1150106.0,1416056.0,164.3,370.83,83.3,100.0
32314,1150064.0,1416072.0,140.07,344.01,83.3,100.0
32338,1150078.0,1416059.0,127.96,315.9,83.3,100.0
32359,1150087.0,1416070.0,121.37,296.5,83.3,100.0
32377,1150078.0,1416054.0,111.49,272.74,83.3,100.0
32399,1149757.0,1415216.0,-13.29,-51.51,83.3,100.0
32418,1149746.0,1415183.0,-89.03,-249.69,83.3,100.0
32438,1149734.0,1415210.0,-135.13,-348.6,83.3,100.0
32459,1149765.0,1415203.0,-147.48,-400.35,83.3,100.0
32479,1149758.0,1415192.0,-153.83,-425.16,83.3,100.0
32499,1149844.0,1415477.0,-122.79,-326.25,83.3,100.0
32518,1149859.0,1415498.0,-96.56,-254.04,83.3,100.0
32539,1149847.0,1415510.0,-83.5,-202.17,83.3,100.0
32558,1149876.0,1415502.0,-63.51,-170.42,83.3,100.0
32579,1149957.0,1415693.0,-21.17,-78.92,83.3,100.0
32597,1149962.0,1415689.0,5.65,-25.64,83.3,100.0
32618,1149951.0,1415751.0,17.05,28.23,83.3,100.0
32638,1149977.0,1415688.0,32.58,35.87,83.3,100.0
32655,1149975.0,1415722.0,40.22,51.75,83.3,100.0
32678,1149940.0,1415684.0,30.93,45.99,83.3,100.0
32698,1149955.0,1415647.0,30.23,28.23,83.3,100.0
32719,1149944.0,1415648.0,25.29,17.64,83.3,100.0
32738,1149960.0,1415661.0,27.52,15.76,83.3,100.0
32759,1149951.0,1415633.0,24.93,4.23,83.3,100.0
32779,1149955.0,1415673.0,24.35,12.0,83.3,100.0
32799,1149970.0,1415663.0,28.93,12.58,83.3,100.0
32818,1149949.0,1415655.0,23.17,9.76,83.3,100.0
32838,1149911.0,1415612.0,5.53,-7.76,83.3,100.0
32859,1149893.0,1415535.0,-11.29,-45.63,83.3,100.0
32878,1149884.0,1415551.0,-23.99,-60.69,83.3,100.0
32899,1149888.0,1415548.0,-29.28,-69.04,83.3,100.0
32919,1149872.0,1415561.0,-37.52,-67.51,83.3,100.0
32938,1149895.0,1415520.0,-33.05,-79.98,83.3,100.0
32958,1149855.0,1415519.0,-44.22,-85.86,83.3,100.0
32979,1149860.0,1415526.0,-47.87,-84.68,83.3,100.0
32998,1149869.0,1415512.0,-45.63,-87.15,83.3,100.0
33019,1149876.0,1415506.0,-40.69,-88.8,83.3,100.0
33038,1149890.0,1415614.0,-31.87,-48.46,83.3,100.0
33058,1149898.0,1415596.0,-23.17,-30.58,83.3,100.0
33078,1149838.0,1415624.0,-39.4,-9.41,83.3,100.0
33098,1149905.0,1415614.0,-23.52,-0.59,83.3,100.0
33118,1149881.0,1415612.0,-22.58,3.76,83.3,100.0
33138,1149814.0,1415383.0,-45.87,-76.92,83.3,100.0
33158,1149791.0,1415340.0,-66.57,-137.37,83.3,100.0
33179,1149810.0,1415322.0,-70.21,-175.71,83.3,100.0
33198,1149782.0,1415250.0,-80.8,-220.05,83.3,100.0
33218,1149538.0,1414710.0,-173.59,-436.57,83.3,100.0
33239,1149499.0,1414715.0,-237.46,-550.06,83.3,100.0
33259,1149516.0,1414738.0,-262.86,-594.76,83.3,100.0
33279,1149545.0,1414708.0,-260.98,-617.92,83.3,100.0
33298,1149547.0,1414746.0,-253.22,-603.34,83.3,100.0
33319,1149569.0,1414831.0,-234.99,-550.3,83.3,100.0
33340,1149565.0,1414842.0,-220.52,-503.02,83.3,100.0
33358,1149603.0,1414816.0,-193.35,-473.73,83.3,100.0
33378,1149589.0,1414780.0,-178.3,-459.03,83.3,100.0
33399,1149592.0,1414820.0,-164.42,-425.51,83.3,100.0
33419,1149603.0,1414900.0,-148.66,-367.41,83.3,100.0
