ts,red_raw,ir_raw,red_f,ir_f,bpm,spo2
6,5541.0,8561.0,49.08,48.81,0.0,100.0
7,5526.0,8560.0,53.92,59.63,0.0,100.0
8,5742.0,8724.0,133.91,124.06,0.0,100.0
9,5720.0,8723.0,169.09,158.1,0.0,100.0
11,5750.0,8742.0,196.45,181.06,0.0,100.0
12,5743.0,8740.0,205.23,189.47,0.0,100.0
12,5716.0,8727.0,195.83,185.28,0.0,100.0
14,5621.0,8616.0,151.43,138.34,0.0,100.0
15,5625.0,8594.0,123.78,100.07,0.0,100.0
16,5623.0,8575.0,104.25,68.78,0.0,100.0
17,5582.0,8578.0,75.7,50.22,0.0,100.0
17,5674.0,8677.0,90.88,74.29,0.0,100.0
18,5660.0,8687.0,92.5,90.14,0.0,100.0
19,5688.0,8696.0,101.49,100.5,0.0,100.0
21,5679.0,8686.0,101.1,100.57,0.0,100.0
23,5684.0,8693.0,100.38,100.86,0.0,100.0
24,5733.0,8746.0,115.47,117.96,0.0,100.0
26,5705.0,8757.0,111.39,129.15,0.0,100.0
27,5718.0,8790.0,111.21,144.65,0.0,100.0
28,5733.0,8801.0,114.01,154.3,0.0,100.0
29,5728.0,8762.0,111.22,142.2,0.0,100.0
31,5761.0,8796.0,119.05,144.3,0.0,100.0
32,5745.0,8782.0,115.04,137.15,0.0,100.0
33,5737.0,8788.0,107.2,132.06,0.0,100.0
34,5737.0,8798.0,100.23,129.74,0.0,100.0
36,5725.0,8798.0,89.55,125.44,0.0,100.0
37,5717.0,8800.0,78.44,120.82,0.0,100.0
39,5699.0,8814.0,63.69,120.48,0.0,100.0
41,5708.0,8791.0,56.98,109.18,0.0,100.0
43,5721.0,8816.0,56.53,109.24,0.0,100.0
44,5731.0,8800.0,58.61,100.97,0.0,100.0
45,5727.0,8802.0,57.02,94.62,0.0,100.0
46,5722.0,8786.0,52.99,82.98,0.0,100.0
47,5740.0,8809.0,55.98,82.71,0.0,100.0
48,5736.0,8807.0,54.98,79.94,0.0,100.0
50,5725.0,8810.0,49.16,77.61,0.0,100.0
50,5718.0,8805.0,42.13,72.67,0.0,100.0
51,5714.0,8799.0,35.65,65.99,0.0,100.0
53,5721.0,8802.0,33.64,61.71,0.0,100.0
54,5722.0,8791.0,32.07,53.83,0.0,100.0
57,5739.0,8794.0,36.61,49.14,0.0,100.0
59,5742.0,8807.0,39.48,50.03,0.0,100.0
60,5710.0,8778.0,28.62,38.88,0.0,100.0
61,5764.0,8809.0,41.3,42.8,0.0,100.0
62,5417.0,8503.0,-78.29,-67.01,0.0,100.0
64,5404.0,8508.0,-150.33,-127.11,0.0,100.0
65,5395.0,8538.0,-191.8,-148.05,0.0,100.0
66,5411.0,8548.0,-205.57,-153.14,0.0,100.0
67,5742.0,8833.0,-88.67,-49.12,0.0,100.0
68,5749.0,8843.0,-16.56,15.74,0.0,97.9
74,5745.0,8851.0,24.04,55.76,0.0,96.0
76,5551.0,8770.0,-23.49,48.21,0.0,94.3
77,5743.0,8863.0,19.29,76.51,0.0,92.8
78,5265.0,8484.0,-129.97,-46.49,63.8,91.3
80,5264.0,8484.0,-213.62,-116.49,63.8,89.9
82,5266.0,8480.0,-256.35,-155.74,63.8,88.6
83,5287.0,8494.0,-267.57,-169.78,63.8,87.4
84,5703.0,8912.0,-116.92,-22.27,63.8,86.2
85,5694.0,8923.0,-30.47,67.48,63.8,85.2
86,5690.0,8910.0,18.73,113.07,63.8,84.2
88,5697.0,8905.0,49.27,135.02,63.8,83.4
89,5691.0,8915.0,63.62,148.26,63.8,82.7
91,5732.0,8902.0,85.34,147.8,63.8,82.0
92,5733.0,8916.0,96.31,149.25,63.8,81.5
94,5720.0,8924.0,95.73,149.59,63.8,81.0
95,5735.0,8910.0,98.66,141.29,63.8,80.6
96,5739.0,8902.0,99.55,130.36,63.8,80.2
97,5697.0,8904.0,82.55,121.8,63.8,79.9
99,5745.0,8935.0,88.27,125.33,63.8,79.6
101,5714.0,8914.0,78.3,116.89,63.8,79.3
103,5743.0,8926.0,81.29,113.7,59.9,79.1
104,5740.0,8941.0,80.07,114.71,57.2,78.8
106,5746.0,8926.0,79.72,107.23,55.3,78.6
108,5765.0,8931.0,84.59,102.28,54.0,78.5
110,5761.0,8946.0,84.03,102.53,53.0,78.3
112,5736.0,8911.0,72.71,87.63,52.4,78.2
114,5744.0,8941.0,67.41,87.91,51.9,78.0
115,5740.0,8937.0,61.36,84.62,51.6,77.9
117,5761.0,8945.0,64.09,83.69,51.4,77.8
118,5768.0,8936.0,66.75,77.97,51.2,77.7
119,5747.0,8946.0,59.14,76.52,51.1,77.6
120,5766.0,8914.0,60.29,62.32,51.0,77.5
123,5765.0,8951.0,59.21,66.13,51.0,77.5
125,5761.0,8926.0,55.79,57.74,50.9,77.4
126,5768.0,8935.0,55.08,54.85,50.9,77.4
127,5625.0,8883.0,1.5,33.04,50.9,77.3
128,5733.0,9026.0,9.71,71.61,50.9,77.3
130,5792.0,9017.0,35.66,88.99,50.9,77.2
132,5755.0,9015.0,36.4,96.28,50.9,77.2
133,6777.0,11161.0,407.05,877.42,50.9,78.0
134,6869.0,11226.0,645.33,1332.36,50.9,79.4
136,6895.0,11249.0,777.74,1573.2,50.9,80.8
137,6970.0,11290.0,863.73,1691.35,50.9,82.1
139,6976.0,11248.0,895.9,1705.8,50.9,83.3
141,1852.0,2044.0,-966.26,-1666.35,50.9,84.4
143,1725.0,1887.0,-2066.33,-3633.85,50.9,85.4
144,1605.0,1753.0,-2698.41,-4736.48,50.9,86.3
146,1516.0,1572.0,-3034.4,-5331.27,50.9,87.1
147,1455.0,1486.0,-3181.46,-5584.56,50.9,87.8
148,621.0,566.0,-3496.66,-5937.54,50.9,88.4
150,652.0,551.0,-3587.77,-6011.5,50.9,89.0
151,651.0,545.0,-3558.93,-5919.29,50.9,89.5
152,629.0,549.0,-3469.07,-5729.52,50.9,89.9
153,630.0,531.0,-3337.65,-5495.7,50.9,90.3
156,621.0,505.0,-3188.85,-5244.67,50.9,90.6
158,667.0,524.0,-3013.42,-4973.08,50.9,90.9
159,601.0,515.0,-2867.27,-4705.98,50.9,91.2
164,626.0,533.0,-2708.34,-4437.75,50.9,91.4
184,629.0,519.0,-2553.64,-4186.61,50.9,91.7
204,624.0,534.0,-2407.81,-3940.55,50.9,91.9
224,635.0,523.0,-2264.62,-3712.47,50.9,92.0
244,626.0,532.0,-2133.5,-3492.73,50.9,92.2
264,656.0,556.0,-1998.17,-3277.36,50.9,92.3
284,624.0,585.0,-1886.01,-3067.63,50.9,92.5
304,635.0,598.0,-1774.18,-2871.75,50.9,92.6
324,659.0,562.0,-1660.38,-2706.12,50.9,92.7
344,654.0,589.0,-1558.56,-2538.88,50.9,92.8
364,856.0,1644.0,-1390.84,-2001.31,50.9,92.9
384,872.0,1702.0,-1256.39,-1623.97,50.9,92.9
404,867.0,1784.0,-1151.85,-1339.12,50.9,93.0
424,889.0,1906.0,-1057.19,-1099.69,50.9,93.1
445,1952.0,4168.0,-592.44,-115.02,50.9,93.1
464,1922.0,4180.0,-321.28,460.93,50.9,93.2
484,1946.0,4203.0,-148.55,791.57,50.9,93.2
504,1930.0,4269.0,-51.16,988.52,50.9,93.2
524,1914.0,4287.0,0.47,1086.31,50.9,93.3
544,2818.0,5576.0,358.49,1586.01,50.9,93.3
564,3577.0,5675.0,832.75,1874.52,50.9,93.4
584,4820.0,5962.0,1539.08,2102.66,50.9,93.4
604,7895.0,6986.0,3028.5,2558.3,50.9,93.4
624,13836.0,10065.0,5976.97,3881.07,50.9,93.3
644,1620.0,5522.0,3109.21,2907.49,59.9,93.1
664,1685.0,5587.0,1404.82,2302.21,66.3,92.9
684,1705.0,5670.0,395.19,1930.08,70.7,92.8
704,1764.0,5740.0,-175.79,1696.44,73.8,92.7
725,323099.0,327652.0,116161.52,118395.45,73.8,92.1
745,328875.0,332408.0,182831.27,184852.91,73.8,91.8
765,597714.0,599800.0,314788.16,316115.63,73.8,91.6
785,604994.0,604895.0,386498.31,386601.13,73.8,91.4
805,611390.0,608615.0,421439.66,419860.94,73.8,91.4
825,1147641.0,881928.0,626706.0,528730.0,73.8,91.3
845,1147670.0,881987.0,731028.38,579597.44,73.8,91.3
865,1147688.0,882050.0,774639.06,595791.25,73.8,91.2
885,1147704.0,882192.0,782173.5,591609.0,73.8,91.2
906,1155072.0,1157531.0,771359.38,675660.81,73.8,91.1
925,1155132.0,1157687.0,747536.5,708871.88,73.8,91.1
945,1155219.0,1157850.0,716750.13,711950.69,73.8,91.1
965,1155289.0,1157972.0,682636.19,697533.31,73.8,91.1
985,1155340.0,1158068.0,647370.75,673325.44,73.8,91.1
1005,1155567.0,1159190.0,612308.38,644385.31,73.8,91.2
1025,1155517.0,1159176.0,578062.63,612958.44,73.8,91.2
1045,1155446.0,1159155.0,545062.19,580808.94,73.8,91.2
1065,1155426.0,1159122.0,513552.88,548971.0,73.8,91.3
1085,1155380.0,1159053.0,483614.22,518026.31,73.8,91.3
1105,1155055.0,1159430.0,455165.0,488465.53,73.8,91.4
1125,1155033.0,1159450.0,428335.25,460249.16,73.8,91.4
1145,1154998.0,1159438.0,403048.69,433441.66,73.8,91.4
1165,1155000.0,1159482.0,379243.88,408080.06,73.8,91.5
1185,1155056.0,1160061.0,356858.06,384326.88,73.8,91.5
1205,1155055.0,1160111.0,335782.28,361852.63,73.8,91.5
1225,1155083.0,1160086.0,315954.47,340603.03,73.8,91.6
1245,1154951.0,1160054.0,297242.22,320543.06,73.8,91.6
1265,1154874.0,1159970.0,279621.25,301609.31,73.8,91.6
1285,1146687.0,1149247.0,260088.41,279895.63,73.8,91.6
1305,1146299.0,1148795.0,242727.94,260799.94,73.8,91.6
1325,1145993.0,1148495.0,227048.48,243707.75,73.8,91.6
1345,1145776.0,1148266.0,212730.48,228189.08,73.8,91.6
1365,1139852.0,1139839.0,197453.61,210957.16,73.8,91.6
1385,1139620.0,1139539.0,184037.81,196078.88,73.8,91.6
1406,1139347.0,1139206.0,171988.63,182888.05,73.8,91.6
1425,1139033.0,1138612.0,160988.89,170878.39,73.8,91.6
1445,1138270.0,1137758.0,150683.52,159730.92,73.8,91.6
1465,26718.0,301941.0,-262266.25,-153804.08,73.8,91.6
1485,25708.0,301123.0,-495262.72,-331760.78,73.8,91.6
1505,24626.0,300139.0,-618988.94,-427377.81,73.8,91.5
1525,23338.0,299107.0,-676828.44,-473253.19,73.8,91.3
1546,24324.0,39089.0,-694452.0,-583367.06,73.8,91.2
1565,26032.0,40809.0,-688173.69,-633061.56,73.8,91.1
1585,29226.0,42691.0,-667687.94,-646651.81,73.8,91.0
1605,32333.0,43973.0,-639491.69,-639288.0,73.8,90.9
1625,33782.0,44668.0,-608085.31,-620197.44,73.8,90.9
1645,21581.0,28566.0,-580496.19,-600864.69,73.8,90.8
1665,17629.0,25554.0,-552747.19,-577080.63,73.8,90.8
1685,14452.0,23030.0,-525257.56,-551089.81,73.8,90.8
1705,11994.0,20996.0,-498283.75,-524238.88,73.8,90.8
1725,10170.0,19454.0,-471993.22,-497324.88,73.8,90.8
1745,14802.0,20794.0,-444353.28,-469942.03,73.8,90.8
1765,15706.0,21600.0,-417917.63,-443106.75,73.8,90.8
1785,16467.0,22245.0,-392832.78,-417258.5,73.8,90.8
1805,17027.0,22742.0,-369173.69,-392623.97,73.8,90.8
1826,595808.0,598075.0,-136950.39,-160553.95,73.8,90.9
1844,596391.0,598590.0,569.65,-22608.72,73.8,90.9
1865,596887.0,599104.0,80199.24,57801.8,73.8,90.9
1885,597487.0,599627.0,124599.49,103136.34,73.8,90.9
1905,598084.0,600166.0,147629.5,127174.74,73.8,90.9
1925,865229.0,866486.0,254558.25,234853.22,73.8,90.9
1945,864089.0,865565.0,310123.53,291380.75,73.8,90.9
1965,862976.0,864627.0,334752.09,317056.31,73.8,90.9
1985,861909.0,863724.0,340959.44,324331.97,73.8,90.9
2005,25214.0,31597.0,32999.57,19027.12,69.0,90.9
2025,24042.0,30466.0,-146125.5,-158230.19,65.6,90.9
2045,22946.0,29343.0,-246692.94,-257452.05,63.2,91.0
2065,21893.0,28278.0,-299558.09,-309298.69,61.6,91.0
2085,20866.0,27192.0,-323644.34,-332595.63,60.4,91.0
2105,22049.0,27893.0,-329749.66,-338215.63,59.6,91.0
2125,22276.0,28068.0,-325672.88,-333684.22,59.0,91.0
2145,22473.0,28245.0,-315816.59,-323389.72,58.6,91.0
2165,22552.0,28302.0,-302888.41,-310043.56,58.3,91.0
2185,22670.0,28398.0,-288465.97,-295224.38,58.1,91.0
2205,1808.0,4316.0,-281126.06,-288670.13,58.0,91.0
2226,1812.0,4294.0,-270470.47,-278305.84,57.9,91.0
2245,1800.0,4270.0,-258147.92,-265977.25,57.8,91.0
2265,1794.0,4257.0,-245141.05,-252790.83,57.8,91.0
2285,9959.0,13388.0,-229068.94,-236089.72,57.8,91.0
2305,11256.0,14908.0,-214085.75,-220501.98,57.7,91.1
2325,13021.0,16912.0,-199903.66,-205737.42,57.7,91.1
2345,15283.0,19347.0,-186327.53,-191628.84,57.7,91.1
2365,18017.0,22186.0,-173239.89,-178074.48,57.7,91.1
2385,46060.0,45986.0,-151544.39,-157539.5,57.7,91.1
2405,46332.0,46303.0,-135452.48,-141965.05,57.7,91.1
2425,46705.0,46689.0,-122928.88,-129587.16,57.7,91.1
2445,47170.0,47189.0,-112719.39,-119297.3,57.7,91.1
2465,305365.0,308170.0,-10509.05,-15878.97,57.7,91.1
2485,303522.0,306149.0,48121.22,43507.18,57.7,91.1
2504,301160.0,303508.0,80043.97,75870.64,57.7,91.1
2525,298314.0,300451.0,95630.51,91730.48,57.7,91.1
2545,295119.0,297128.0,101295.33,97595.69,57.7,91.1
2564,12891.0,11725.0,-207.2,-4859.36,57.7,91.1
2585,13639.0,12157.0,-58581.57,-63792.73,62.9,91.1
2605,14433.0,12570.0,-90687.11,-96240.73,66.5,91.1
2625,15314.0,13101.0,-106849.9,-112601.8,69.1,91.1
2645,16218.0,13588.0,-113423.54,-119310.19,70.8,91.1
2665,871052.0,598680.0,195719.7,91957.49,72.1,91.1
2685,872021.0,599932.0,370237.34,212390.02,73.0,91.2
2705,872788.0,601026.0,462910.75,277531.13,73.6,91.2
2725,873582.0,602197.0,506188.22,309265.44,74.0,91.2
2745,1153705.0,1155474.0,621348.88,521419.13,74.3,91.2
2765,1153911.0,1155861.0,673792.44,632252.81,74.5,91.2
2785,1154001.0,1156191.0,688758.0,681992.25,74.7,91.2
2805,1154148.0,1156460.0,681747.19,695273.31,74.8,91.2
2825,1154248.0,1156670.0,662180.56,687163.38,74.8,91.2
2845,1155814.0,1161316.0,636337.81,668488.69,74.8,91.3
2865,1155886.0,1161496.0,606915.5,642514.13,74.8,91.3
2885,1155936.0,1161665.0,576087.94,612909.81,74.8,91.3
2905,1156019.0,1161788.0,545163.56,581866.94,74.8,91.3
2925,1157361.0,1426808.0,515345.97,646873.94,74.8,91.3
2945,1157346.0,1426844.0,486355.25,669693.38,74.8,91.4
2965,1157402.0,1426889.0,458529.47,667618.63,74.8,91.4
2985,1157431.0,1426929.0,432001.88,651204.81,74.8,91.4
3005,1157446.0,1426972.0,406824.34,626881.0,74.8,91.4
3025,1158002.0,1428328.0,383197.72,599018.31,74.8,91.5
3045,1157996.0,1428343.0,360802.13,569259.38,74.8,91.5
3065,1158008.0,1428373.0,339635.19,539089.13,74.8,91.5
3085,1157992.0,1428366.0,319650.97,509355.94,74.3,91.5
3105,1158054.0,1428430.0,300834.38,480579.41,73.9,91.5
3125,1158053.0,1428851.0,283098.88,453141.63,73.7,91.5
3145,1158081.0,1428872.0,266403.03,426958.16,73.6,91.6
3165,1158069.0,1428851.0,250674.28,402081.47,73.4,91.5
3185,1158071.0,1428842.0,235868.33,378531.75,73.4,91.5
3205,1157979.0,1429064.0,221899.16,356369.75,73.3,91.5
3225,1158016.0,1429067.0,208778.91,335435.81,73.3,91.5
3245,1158001.0,1429066.0,196429.7,315687.28,73.2,91.5
3265,1158015.0,1428841.0,184818.27,296993.13,73.2,91.5
3285,1157998.0,1429083.0,173886.73,279504.09,73.2,91.5
3305,1157910.0,1429114.0,163571.61,263033.94,73.2,91.4
3325,1157943.0,1429113.0,153891.92,247516.56,73.2,91.4
3345,1157962.0,1429104.0,144795.13,232900.66,73.2,91.4
3365,1157915.0,1429136.0,136218.75,219154.02,73.2,91.3
3385,1157897.0,1429194.0,128149.15,206232.64,73.2,91.3
3405,1157884.0,1429198.0,120558.34,194063.27,73.2,91.2
3425,1157908.0,1429186.0,113430.8,182600.25,73.2,91.2
3445,1157877.0,1429193.0,106713.49,171813.86,73.2,91.1
3465,1157885.0,1429216.0,100400.64,161670.2,73.2,91.1
3485,1157804.0,1429177.0,94433.21,152106.84,73.2,91.1
3505,1157808.0,1429158.0,88832.37,143104.13,73.2,91.1
3525,1157804.0,1429190.0,83568.25,134649.34,73.2,91.1
3545,1157808.0,1429176.0,78621.55,126687.37,73.2,91.1
3566,1157796.0,1429275.0,73965.37,119232.76,73.2,91.2
3585,1157788.0,1429351.0,69584.85,112232.94,73.2,91.2
3605,1157841.0,1429357.0,65485.54,105630.3,73.2,91.2
3625,1157829.0,1429367.0,61618.63,99409.06,73.2,91.3
3645,1157827.0,1429376.0,57977.89,93549.95,73.2,91.3
3665,1157911.0,1429753.0,54582.12,88167.28,73.2,91.3
3685,1157918.0,1429730.0,51377.36,83037.35,73.2,91.4
3705,1157921.0,1429756.0,48354.66,78188.4,73.2,91.4
3725,1157933.0,1429782.0,45509.31,73612.41,73.2,91.4
3745,1157917.0,1429768.0,42821.33,69284.01,73.2,91.4
3765,1157934.0,1429956.0,40297.53,65270.67,73.2,91.4
3785,1157966.0,1429988.0,37931.56,61474.33,73.2,91.4
3805,1157943.0,1429960.0,35690.73,57868.28,73.2,91.4
3825,1157946.0,1429976.0,33582.92,54470.4,73.2,91.4
3846,1157724.0,1429515.0,31518.15,51097.1,73.2,91.4
3865,1157703.0,1429491.0,29598.52,47973.48,73.2,91.4
3885,1157696.0,1429511.0,27811.55,45081.57,73.2,91.4
3905,1157710.0,1429471.0,26149.71,42367.71,73.2,91.4
3925,1157714.0,1429455.0,24594.44,39827.21,73.2,91.3
3945,1157674.0,1429492.0,23120.07,37464.3,73.2,91.3
3965,1157689.0,1429538.0,21746.27,35260.87,73.2,91.3
3985,1157658.0,1429515.0,20445.14,33175.05,73.2,91.3
4005,1157684.0,1429500.0,19236.34,31207.54,73.2,91.3
4026,1157646.0,1429542.0,18085.29,29374.0,73.2,91.3
4045,1157679.0,1429578.0,17019.51,27657.6,73.2,91.3
4065,1157660.0,1429574.0,16008.53,26033.4,73.2,91.2
4085,1157656.0,1429574.0,15057.77,24501.05,73.2,91.2
4105,1157658.0,1429570.0,14165.58,23055.15,73.2,91.2
4125,1157652.0,1429589.0,13324.78,21700.63,73.2,91.2
4145,1157653.0,1429588.0,12535.38,20422.68,73.2,91.2
4165,1157639.0,1429599.0,11788.2,19222.23,73.2,91.2
4185,1157652.0,1429586.0,11092.3,18085.53,73.2,91.2
4205,1157664.0,1429582.0,10441.44,17014.57,73.2,91.2
4225,1157612.0,1429628.0,9808.35,16024.41,73.2,91.2
4245,1157627.0,1429622.0,9224.29,15084.46,73.2,91.2
4265,1157616.0,1429628.0,8672.35,14199.45,73.2,91.2
4285,1157631.0,1429635.0,8161.1,13366.77,73.2,91.2
4305,1157604.0,1429720.0,7669.72,12611.47,73.2,91.2
4325,1157607.0,1429761.0,7211.86,11902.28,73.2,91.2
4345,1157591.0,1429727.0,6776.94,11208.62,73.2,91.2
4365,1157586.0,1429722.0,6369.3,10550.35,73.2,91.2
4385,1157607.0,1429755.0,5996.01,9941.25,73.2,91.2
4405,1157628.0,1429847.0,5651.18,9396.01,73.2,91.2
4425,1157629.0,1429849.0,5323.4,8867.35,73.2,91.1
4445,1157638.0,1429847.0,5015.73,8358.8,73.2,91.1
4465,1157640.0,1429843.0,4724.41,7872.83,73.2,91.1
4485,1157644.0,1430002.0,4449.67,7470.25,73.2,91.1
4505,1157647.0,1430005.0,4190.46,7068.26,73.2,91.1
4525,1157607.0,1429997.0,3930.65,6671.8,73.2,91.1
4545,1157648.0,1429980.0,3705.67,6284.27,73.2,91.1
4565,1157668.0,1429993.0,3498.44,5921.8,73.2,91.1
4585,1157660.0,1430065.0,3295.91,5603.31,73.2,91.1
4605,1157665.0,1430054.0,3105.5,5287.41,73.2,91.1
4625,1157652.0,1430075.0,2919.91,4991.97,73.2,91.1
4645,1157643.0,1430061.0,2742.79,4702.41,73.2,91.1
4666,1157457.0,1429578.0,2510.39,4252.32,73.2,91.0
4685,1157436.0,1429566.0,2311.16,3890.9,73.2,91.0
4705,1157447.0,1429566.0,2147.33,3593.35,73.2,91.0
4725,1157418.0,1429598.0,1993.14,3351.07,73.2,91.1
4745,1157420.0,1429569.0,1859.3,3124.2,73.2,91.1
4765,1157378.0,1429587.0,1724.28,2928.38,73.2,91.2
4785,1157411.0,1429577.0,1618.91,2744.67,73.2,91.3
4806,1157412.0,1429571.0,1521.41,2573.78,73.2,91.5
4825,1157404.0,1429541.0,1427.44,2405.37,73.2,91.7
4845,1157404.0,1429577.0,1340.64,2266.23,73.2,91.9
4865,1157313.0,1429544.0,1226.79,2122.28,73.2,92.1
4885,1157366.0,1429552.0,1152.23,1993.49,73.2,92.4
4905,1157364.0,1429538.0,1082.25,1868.59,73.2,92.6
4925,1157383.0,1429561.0,1024.03,1762.16,73.2,92.9
4945,1157312.0,1429502.0,941.24,1639.02,73.2,93.2
4965,1157320.0,1429504.0,874.79,1531.17,73.2,93.5
4985,1157304.0,1429509.0,810.57,1435.79,73.2,93.7
5005,1157311.0,1429500.0,757.65,1344.52,73.2,94.0
5025,1157286.0,1429500.0,700.6,1261.14,73.2,94.2
5045,1157291.0,1429538.0,653.56,1197.98,73.2,94.4
5065,1157270.0,1429533.0,603.69,1132.47,73.2,94.5
5085,1157286.0,1429539.0,567.0,1070.96,73.2,94.7
5105,1157313.0,1429528.0,542.65,1006.98,73.2,94.8
5125,1157292.0,1429608.0,508.55,976.05,73.2,95.0
5145,1157306.0,1429617.0,482.32,939.12,73.2,95.1
5165,1157319.0,1429671.0,461.03,916.07,73.2,95.2
5185,1157316.0,1429623.0,437.04,864.44,73.2,95.3
5205,1157295.0,1429657.0,405.52,827.15,73.2,95.4
5225,1157335.0,1429750.0,392.58,820.45,73.2,95.5
5245,1157324.0,1429762.0,372.24,802.34,73.2,95.5
5265,1157326.0,1429766.0,352.71,774.93,73.2,95.6
5285,1157342.0,1429805.0,339.19,755.53,73.2,95.7
5305,1157346.0,1429750.0,325.19,707.19,73.2,95.7
5325,1157351.0,1429914.0,311.43,722.72,73.2,95.8
5345,1157367.0,1429919.0,302.14,717.07,73.2,95.8
5365,1157338.0,1429912.0,279.32,694.96,73.2,95.8
5385,1157382.0,1429936.0,275.8,674.97,73.2,95.9
5405,1157312.0,1429892.0,242.04,632.04,73.2,95.9
5425,1157318.0,1429866.0,219.11,583.35,73.2,95.9
5445,1157304.0,1429855.0,195.82,537.95,73.2,96.0
5465,1157301.0,1429867.0,176.89,503.84,73.2,96.0
5485,1157289.0,1429803.0,157.48,449.39,73.2,96.0
5505,1157090.0,1429273.0,70.45,215.23,73.2,96.0
5524,1157061.0,1429282.0,8.12,78.33,73.2,96.0
5544,1157055.0,1429271.0,-30.34,-6.59,73.2,96.1
5565,1157073.0,1429258.0,-45.28,-60.22,73.2,96.1
5585,1157011.0,1429172.0,-75.39,-121.14,73.2,96.1
5605,1157006.0,1429179.0,-92.91,-151.01,73.2,96.1
5625,1156984.0,1429167.0,-108.91,-169.12,73.2,96.1
5645,1157046.0,1429165.0,-93.03,-176.42,73.2,96.1
5665,1157012.0,1429184.0,-94.09,-169.71,73.2,96.1
5685,1156954.0,1429035.0,-113.73,-216.17,73.2,96.1
5705,1156948.0,1429023.0,-124.67,-242.28,73.2,96.2
5725,1156958.0,1429024.0,-124.43,-251.57,73.2,96.2
5745,1156935.0,1429035.0,-129.72,-247.22,73.2,96.2
5766,1156828.0,1428840.0,-168.77,-309.9,73.2,96.2
5785,1156876.0,1428796.0,-170.06,-354.95,73.2,96.2
5805,1156842.0,1428776.0,-179.36,-380.23,73.2,96.2
5825,1156815.0,1428785.0,-190.41,-382.82,73.2,96.2
5845,1156843.0,1428765.0,-182.18,-382.94,73.2,96.2
5865,1156738.0,1428556.0,-211.35,-450.21,73.2,96.2
5885,1156757.0,1428560.0,-216.64,-477.38,73.2,96.2
5905,1156743.0,1428564.0,-219.7,-480.67,73.2,96.2
5925,1156716.0,1428524.0,-226.4,-486.08,73.2,96.2
5945,1156738.0,1428543.0,-216.99,-471.26,73.2,96.2
5966,1156660.0,1428356.0,-234.99,-519.84,73.2,96.2
5985,1156655.0,1428354.0,-241.81,-536.77,73.2,96.2
6005,1156663.0,1428335.0,-237.34,-541.24,73.2,96.3
6025,1156649.0,1428333.0,-234.51,-532.19,73.2,96.3
6045,1156584.0,1428134.0,-251.1,-586.99,73.2,96.3
6065,1156583.0,1428121.0,-255.33,-610.04,73.2,96.3
6085,1156532.0,1428129.0,-270.5,-606.4,73.2,96.3
6105,1156580.0,1428147.0,-255.57,-583.94,73.2,96.3
6125,1156573.0,1428116.0,-243.69,-568.88,73.2,96.3
6145,1156498.0,1427876.0,-258.51,-634.39,73.2,96.3
6165,1156537.0,1427875.0,-246.98,-658.15,73.2,96.3
6185,1156482.0,1427870.0,-254.74,-658.74,73.2,96.4
6205,1156518.0,1427879.0,-240.28,-640.74,73.2,96.4
6226,1156458.0,1427712.0,-248.28,-676.38,73.2,96.4
6245,1156409.0,1427721.0,-264.98,-678.26,73.2,96.4
6265,1156438.0,1427688.0,-258.04,-675.79,73.2,96.4
6285,1156439.0,1427685.0,-247.8,-660.03,73.2,96.5
6305,1156416.0,1427690.0,-244.51,-634.04,73.2,96.5
6325,1155980.0,1426539.0,-395.41,-1022.39,73.2,96.5
6345,1155950.0,1426532.0,-484.44,-1226.09,73.2,96.6
6365,1155948.0,1426467.0,-525.48,-1339.46,73.2,96.6
6385,1155955.0,1426425.0,-534.77,-1389.68,73.2,96.6
6405,1155919.0,1426422.0,-540.89,-1387.92,73.2,96.7
6425,1155778.0,1426057.0,-583.35,-1487.77,73.2,96.7
6445,1155761.0,1426051.0,-600.75,-1513.76,73.2,96.8
6465,1155775.0,1426058.0,-592.05,-1491.77,73.2,96.8
6511,1155757.0,1426046.0,-579.94,-1449.31,73.2,96.9
6512,1155681.0,1425838.0,-587.35,-1467.19,73.2,96.9
6528,1155666.0,1425816.0,-583.7,-1452.13,73.2,97.0
6545,1155715.0,1425828.0,-550.53,-1405.91,73.2,97.1
6565,1155668.0,1425841.0,-535.83,-1342.4,73.2,97.1
6585,1155670.0,1425804.0,-514.43,-1288.54,73.2,97.2
6605,1155619.0,1425715.0,-508.78,-1260.19,73.2,97.3
6625,1155618.0,1425726.0,-494.2,-1211.15,73.2,97.3
6645,1155596.0,1425710.0,-482.56,-1160.93,73.2,97.4
6665,1155628.0,1425716.0,-453.15,-1103.3,73.2,97.5
6686,1155582.0,1425603.0,-442.57,-1085.78,73.2,97.6
6705,1155544.0,1425629.0,-440.22,-1041.44,73.2,97.7
6725,1155592.0,1425630.0,-411.4,-991.81,73.2,97.8
6745,1155581.0,1425641.0,-389.29,-936.41,73.2,97.9
6765,1155570.0,1425632.0,-371.65,-886.31,73.2,98.0
6785,1155585.0,1425742.0,-347.54,-797.16,73.2,98.1
6805,1155601.0,1425734.0,-319.78,-730.36,73.2,98.2
6825,1155607.0,1425736.0,-294.26,-674.5,73.2,98.3
6845,1155612.0,1425766.0,-270.97,-615.81,73.2,98.4
6865,1155609.0,1425764.0,-252.51,-568.65,73.2,98.5
6885,1155674.0,1425907.0,-212.4,-476.44,73.2,98.6
6905,1155674.0,1425925.0,-184.41,-405.87,73.2,98.7
6925,1155662.0,1425927.0,-168.3,-355.07,73.2,98.8
6945,1155696.0,1425932.0,-142.78,-315.9,73.2,98.9
6965,1155746.0,1426062.0,-106.67,-238.75,73.2,99.0
6985,1155715.0,1426067.0,-94.56,-186.88,73.2,99.1
7005,1155669.0,1426104.0,-102.09,-139.25,73.2,99.2
7025,1155714.0,1426087.0,-87.85,-114.79,73.2,99.3
7045,1155719.0,1426103.0,-75.86,-92.09,73.2,99.4
7066,1155796.0,1426250.0,-39.16,-23.64,73.2,99.4
7085,1155751.0,1426253.0,-33.4,17.64,73.2,99.5
7105,1155777.0,1426248.0,-19.88,39.16,73.2,99.5
7125,1155801.0,1426250.0,-2.94,51.51,73.2,99.6
7145,1155628.0,1425846.0,-55.98,-89.27,73.2,99.6
7166,1155552.0,1425804.0,-112.91,-183.82,73.2,99.7
7185,1155578.0,1425796.0,-133.72,-237.22,73.2,99.7
7205,1155579.0,1425748.0,-142.43,-280.03,73.2,99.7
7225,1155559.0,1425692.0,-151.36,-318.61,73.2,99.8
7245,1155255.0,1424860.0,-263.45,-635.8,73.2,99.8
7265,1155234.0,1424863.0,-329.9,-803.4,73.2,99.8
7285,1155239.0,1424868.0,-358.95,-880.2,73.2,99.8
7305,1155238.0,1424823.0,-367.89,-920.77,73.2,99.8
7325,1155221.0,1424873.0,-370.83,-905.13,73.2,99.9
7345,1155190.0,1424776.0,-375.41,-910.66,73.2,99.9
7365,1155192.0,1424775.0,-368.71,-893.37,73.2,99.9
7385,1155195.0,1424768.0,-355.3,-865.61,73.2,99.9
7405,1155217.0,1424748.0,-331.43,-837.03,73.2,99.9
7425,1155201.0,1424809.0,-315.9,-779.29,73.2,99.9
7445,1155226.0,1424797.0,-290.62,-732.48,73.2,99.9
7465,1155202.0,1424800.0,-278.15,-687.67,73.2,99.9
7485,1155177.0,1424786.0,-273.68,-651.09,73.2,99.9
7505,1155224.0,1424822.0,-247.69,-602.16,73.2,99.9
7525,1155211.0,1424802.0,-231.69,-567.35,73.2,99.9
7545,1155218.0,1424830.0,-214.76,-524.07,73.2,100.0
7565,1155229.0,1424826.0,-196.06,-488.67,73.2,100.0
7585,1155215.0,1424838.0,-185.82,-452.68,73.2,100.0
7605,1155271.0,1424966.0,-155.36,-375.06,73.2,100.0
7625,1155275.0,1424968.0,-132.78,-320.84,73.2,100.0
7645,1155245.0,1424955.0,-127.49,-286.97,73.2,100.0
7665,1155269.0,1424992.0,-112.91,-247.45,73.2,100.0
7685,1155273.0,1425003.0,-100.44,-214.99,73.2,100.0
7705,1155391.0,1425252.0,-48.1,-100.91,73.2,100.0
7725,1155400.0,1425253.0,-13.53,-32.34,73.2,100.0
7745,1155364.0,1425273.0,-6.23,15.29,73.2,100.0
7765,1155398.0,1425283.0,10.35,46.1,73.2,100.0
7785,1155454.0,1425435.0,40.11,118.08,73.2,100.0
7805,1155433.0,1425453.0,48.81,163.48,73.2,100.0
7825,1155446.0,1425462.0,57.39,189.35,73.2,100.0
7845,1155469.0,1425483.0,69.39,207.46,73.2,100.0
7865,1155467.0,1425508.0,73.98,222.4,73.2,100.0
7885,1155553.0,1425681.0,106.2,288.73,73.2,100.0
7905,1155547.0,1425686.0,120.2,322.25,73.2,100.0
7925,1155527.0,1425682.0,118.32,332.84,73.2,100.0
7945,1155533.0,1425651.0,116.79,320.14,73.2,100.0
7965,1155519.0,1425674.0,108.08,313.78,73.2,100.0
7985,1155535.0,1425748.0,106.44,329.78,73.2,100.0
8005,1155565.0,1425735.0,113.85,326.84,73.2,100.0
8025,1155548.0,1425710.0,109.5,308.61,73.2,100.0
8045,1155541.0,1425687.0,101.85,282.74,73.2,100.0
8065,1155117.0,1424625.0,-58.81,-124.31,73.7,100.0
8085,1155118.0,1424594.0,-149.84,-367.89,74.1,100.0
8105,1155149.0,1424605.0,-187.82,-496.2,74.4,100.0
8125,1155086.0,1424582.0,-228.4,-567.47,74.6,100.0
8145,1155087.0,1424527.0,-246.28,-615.69,74.7,100.0
8165,1155089.0,1424518.0,-250.16,-632.74,74.8,100.0
8185,1155073.0,1424489.0,-252.51,-638.74,74.8,100.0
8205,1155074.0,1424520.0,-247.8,-616.4,74.9,100.0
8225,1155092.0,1424507.0,-232.87,-594.05,74.9,100.0
8246,1155101.0,1424523.0,-215.7,-561.82,74.9,100.0
8265,1155093.0,1424573.0,-203.82,-512.31,75.0,100.0
8285,1155085.0,1424576.0,-195.23,-470.79,75.0,100.0
8305,1155119.0,1424572.0,-173.36,-437.51,75.0,100.0
8325,1155121.0,1424572.0,-156.07,-408.34,75.0,100.0
8345,1155124.0,1424644.0,-141.49,-356.12,75.0,100.0
8365,1155129.0,1424644.0,-127.96,-317.78,75.0,100.0
8385,1155105.0,1424629.0,-126.08,-293.79,75.0,100.0
8405,1155102.0,1424636.0,-123.14,-270.62,75.0,100.0
8425,1155141.0,1424635.0,-104.44,-251.45,75.0,100.0
8445,1155192.0,1424803.0,-72.8,-173.71,75.0,100.0
8465,1155180.0,1424818.0,-57.16,-119.37,75.0,100.0
8485,1155182.0,1424803.0,-46.1,-90.68,75.0,100.0
8505,1155176.0,1424824.0,-40.81,-64.33,75.0,100.0
8525,1155277.0,1425119.0,-0.12,59.39,75.0,100.0
8545,1155313.0,1425099.0,36.46,122.31,75.0,100.0
8565,1155261.0,1425142.0,37.87,171.48,75.0,100.0
8585,1155312.0,1425140.0,56.34,195.23,75.0,100.0
8605,1155313.0,1425139.0,66.1,204.17,75.0,100.0
8625,1155361.0,1425368.0,87.62,287.79,75.0,100.0
8645,1155398.0,1425366.0,111.49,328.84,75.0,100.0
8665,1155391.0,1425376.0,120.2,348.71,75.0,100.0
8685,1155377.0,1425395.0,117.49,359.18,75.0,100.0
8705,1155431.0,1425525.0,132.9,404.11,75.0,100.0
8725,1155450.0,1425529.0,145.6,422.34,75.0,100.0
8745,1155434.0,1425513.0,143.84,417.52,75.0,100.0
8765,1155447.0,1425523.0,144.31,408.7,75.0,100.0
8785,1155440.0,1425521.0,138.66,393.64,75.0,100.0
8817,1155491.0,1425705.0,150.78,442.69,75.0,100.0
8832,1155483.0,1425698.0,151.36,458.45,75.0,100.0
8858,1155497.0,1425697.0,153.36,456.8,75.0,100.0
8865,1155518.0,1425696.0,158.66,444.92,75.0,100.0
8886,1155506.0,1425720.0,153.72,436.69,75.0,100.0
8905,1155308.0,1425187.0,75.51,228.4,73.7,100.0
8925,1155295.0,1425122.0,23.87,79.27,72.7,100.0
8945,1155273.0,1425113.0,-14.47,-12.0,72.1,100.0
8965,1155252.0,1425045.0,-43.99,-89.15,71.6,100.0
8985,1154942.0,1424234.0,-172.53,-426.1,71.3,100.0
9016,1154913.0,1424224.0,-253.45,-614.75,71.1,100.0
9025,1154907.0,1424215.0,-296.61,-712.95,69.8,100.0
9045,1154914.0,1424228.0,-312.26,-748.82,68.8,100.0
9065,1154954.0,1424229.0,-299.67,-752.12,68.2,100.0
9085,1154931.0,1424242.0,-293.79,-732.12,67.7,100.0
9105,1154950.0,1424217.0,-276.85,-712.95,67.4,100.0
9125,1154924.0,1424214.0,-270.27,-686.73,67.2,100.0
9145,1154928.0,1424210.0,-258.74,-657.32,67.0,100.0
9166,1154967.0,1424350.0,-232.05,-574.64,66.9,100.0
9185,1154923.0,1424337.0,-227.22,-518.43,66.8,100.0
9205,1154976.0,1424343.0,-200.06,-471.85,66.8,100.0
9225,1154974.0,1424371.0,-180.53,-424.1,66.8,100.0
9245,1154976.0,1424352.0,-164.42,-393.64,66.7,100.0
9265,1154956.0,1424393.0,-158.54,-352.24,66.7,100.0
9285,1154979.0,1424400.0,-143.13,-317.67,66.7,100.0
9305,1154961.0,1424389.0,-137.6,-294.5,66.7,100.0
9325,1154980.0,1424378.0,-124.31,-278.38,66.7,100.0
9345,1155011.0,1424392.0,-102.67,-257.57,66.7,100.0
9365,1155065.0,1424612.0,-68.1,-159.83,66.7,100.0
9386,1155051.0,1424615.0,-51.75,-98.68,66.7,100.0
9405,1155078.0,1424605.0,-31.28,-64.69,66.7,100.0
9425,1155049.0,1424627.0,-29.17,-35.52,66.7,100.0
9445,1155152.0,1424891.0,10.11,77.98,66.7,100.0
9465,1155139.0,1424913.0,27.76,149.72,66.7,100.0
9485,1155155.0,1424896.0,43.16,181.59,66.7,100.0
9505,1155144.0,1424843.0,47.04,176.65,66.7,100.0
9525,1155158.0,1424914.0,53.28,195.47,66.7,100.0
9545,1155216.0,1425116.0,76.68,275.33,66.7,100.0
9565,1155235.0,1425138.0,95.38,323.19,66.7,100.0
9585,1155252.0,1425126.0,110.2,339.19,66.7,100.0
9605,1155233.0,1425126.0,109.38,340.72,66.7,100.0
9625,1155302.0,1425292.0,131.49,394.11,66.7,100.0
9645,1155304.0,1425318.0,141.96,425.4,66.7,100.0
9665,1155307.0,1425323.0,145.95,435.51,66.7,100.0
9685,1155303.0,1425337.0,143.48,436.57,66.7,100.0
9705,1155294.0,1425324.0,135.49,422.57,66.7,100.0
9725,1155355.0,1425494.0,149.95,466.56,66.7,100.0
9745,1155395.0,1425515.0,169.36,488.79,66.7,100.0
9765,1155372.0,1425495.0,168.42,483.26,66.7,100.0
9785,1155355.0,1425501.0,157.72,471.26,66.7,100.0
9806,1155380.0,1425441.0,157.13,431.75,66.7,100.0
9825,1155314.0,1425470.0,129.25,409.64,66.7,100.0
9845,1155336.0,1425438.0,118.2,375.88,66.7,100.0
9865,1155350.0,1425414.0,114.2,339.07,66.7,100.0
9885,1155311.0,1425381.0,95.15,298.14,66.2,100.0
9905,1154836.0,1424114.0,-90.56,-192.41,65.9,100.0
9925,1154810.0,1424073.0,-205.11,-486.2,65.7,100.0
9945,1154838.0,1424065.0,-256.51,-647.92,65.6,100.0
9965,1154838.0,1424095.0,-280.38,-715.54,65.5,100.0
9985,1154807.0,1424032.0,-298.97,-761.17,65.4,100.0
10005,1154843.0,1424129.0,-289.91,-734.95,65.3,100.0
10025,1154837.0,1424113.0,-280.15,-708.96,65.3,100.0
10045,1154823.0,1424114.0,-273.21,-677.44,65.3,100.0
10065,1154828.0,1424126.0,-261.21,-639.33,65.3,100.0
10085,1154850.0,1424215.0,-240.4,-570.41,65.2,100.0
10105,1154884.0,1424202.0,-210.4,-522.19,65.2,100.0
10125,1154868.0,1424259.0,-194.17,-461.86,65.2,100.0
10145,1154885.0,1424214.0,-174.06,-432.81,65.2,100.0
10165,1154867.0,1424254.0,-165.12,-391.52,65.2,100.0
10185,1154899.0,1424330.0,-144.54,-331.19,65.2,100.0
10205,1154884.0,1424334.0,-134.78,-287.32,65.2,100.0
10225,1154916.0,1424339.0,-114.43,-253.69,65.2,100.0
10245,1154918.0,1424331.0,-99.26,-231.22,65.2,100.0
10266,1154952.0,1424460.0,-75.98,-166.3,65.2,100.0
10285,1155017.0,1424512.0,-37.16,-106.08,65.2,100.0
10305,1154959.0,1424494.0,-34.93,-75.39,65.2,100.0
10325,1154971.0,1424506.0,-28.46,-51.51,65.2,100.0
10345,1154948.0,1424517.0,-32.46,-32.58,65.2,100.0
10365,1155064.0,1424805.0,8.0,83.62,65.2,100.0
10385,1424917.0,1424823.0,98003.51,155.48,65.2,97.0
10405,1155077.0,1424842.0,54424.53,200.29,65.2,94.3
10425,1155083.0,1424830.0,28004.19,217.23,65.2,91.9
10447,1155165.0,1425072.0,12128.92,310.02,65.2,89.7
10465,1155176.0,1425091.0,2683.04,363.42,65.2,87.7
10485,1155180.0,1425111.0,-2834.76,393.17,65.2,85.9
10505,1155182.0,1425108.0,-5957.67,400.23,65.2,84.3
10525,1155194.0,1425119.0,-7621.85,399.29,65.2,82.9
10545,1155251.0,1425327.0,-8389.03,465.03,65.2,81.6
10565,1155245.0,1425316.0,-8643.06,488.44,65.2,80.5
10585,1155250.0,1425326.0,-8590.96,494.43,65.2,79.4
10606,1155206.0,1425349.0,-8380.79,494.9,65.2,78.5
10625,1155264.0,1425319.0,-8047.13,473.03,65.2,77.6
10645,1155337.0,1425544.0,-7644.2,531.36,65.2,76.9
10665,1155327.0,1425553.0,-7240.68,556.18,65.2,76.2
10685,1155329.0,1425563.0,-6841.63,561.35,65.2,75.6
10706,1155336.0,1425568.0,-6452.46,553.47,65.2,75.0
10725,1155371.0,1425730.0,-6067.63,595.11,65.2,74.5
10745,1155418.0,1425744.0,-5689.87,610.75,65.2,74.1
10765,1155392.0,1425754.0,-5351.15,609.34,65.2,73.6
10785,1155403.0,1425730.0,-5029.37,586.05,65.2,73.3
10805,1155435.0,1425761.0,-4717.11,570.41,65.2,73.0
10825,1155180.0,1425100.0,-4521.65,308.37,63.7,72.7
10845,1155161.0,1425052.0,-4312.42,132.43,62.6,72.4
10865,1155144.0,1425055.0,-4099.31,28.81,61.8,72.2
10885,1155126.0,1424969.0,-3889.14,-62.8,61.3,71.9
10906,1154803.0,1424225.0,-3796.34,-384.35,60.9,71.7
10925,1154819.0,1424202.0,-3650.27,-569.82,60.6,71.6
10945,1154822.0,1424243.0,-3481.5,-649.21,60.4,71.4
10965,1154809.0,1424228.0,-3309.32,-685.67,60.3,71.3
10985,1154854.0,1424231.0,-3118.08,-689.9,60.2,71.1
11006,1154865.0,1424331.0,-2932.38,-640.39,60.1,71.0
11025,1154869.0,1424331.0,-2756.79,-597.11,60.1,70.9
11046,1154875.0,1424328.0,-2590.25,-559.71,60.1,70.8
11065,1154843.0,1424250.0,-2446.53,-553.59,60.1,70.8
11085,1154870.0,1424322.0,-2297.87,-511.37,60.0,70.7
11107,1154889.0,1424491.0,-2152.62,-413.87,60.0,70.6
11125,1154910.0,1424469.0,-2011.96,-356.12,60.0,70.5
11145,1154927.0,1424500.0,-1878.71,-303.32,60.0,70.5
11166,1154908.0,1424492.0,-1765.68,-268.86,60.0,70.4
11185,1154936.0,1424524.0,-1649.84,-231.22,60.0,70.4
11206,1154925.0,1424558.0,-1549.4,-191.82,60.0,70.4
11225,1154907.0,1424529.0,-1462.48,-175.24,60.0,70.3
11245,1154952.0,1424541.0,-1362.63,-157.24,60.0,70.3
11265,1154938.0,1424552.0,-1278.89,-139.37,60.0,70.3
11286,1154992.0,1424760.0,-1181.75,-50.34,60.0,70.2
11306,1155004.0,1424773.0,-1094.25,6.94,60.0,70.2
11325,1155018.0,1424798.0,-1013.68,49.04,60.0,70.2
11345,1155028.0,1424795.0,-940.29,71.15,60.0,70.2
11366,1155135.0,1425028.0,-837.62,166.89,60.0,70.2
11385,1155100.0,1425076.0,-771.88,235.81,60.0,70.1
11406,1155120.0,1425086.0,-709.07,273.8,60.0,70.1
11425,1155129.0,1425097.0,-653.33,293.44,60.0,70.1
11478,1155122.0,1425087.0,-608.87,294.61,60.0,70.1
11479,1155193.0,1425272.0,-543.48,355.77,60.0,70.1
11485,1155185.0,1425297.0,-496.2,392.0,60.0,70.1
11506,1155187.0,1425272.0,-456.8,394.94,60.0,70.1
11525,1155185.0,1425257.0,-424.34,382.12,60.0,70.1
11545,1155195.0,1425262.0,-392.35,367.89,60.0,70.1
11565,1155232.0,1425439.0,-351.42,415.52,60.0,70.1
11585,1155225.0,1425413.0,-322.25,424.1,60.0,70.0
11606,1155238.0,1425434.0,-293.32,427.04,60.0,70.0
11625,1155237.0,1425422.0,-270.39,414.58,60.0,70.0
11645,1155305.0,1425548.0,-226.16,443.74,60.0,70.0
11665,1155290.0,1425576.0,-200.88,460.56,60.0,70.0
11685,1155308.0,1425591.0,-175.24,465.15,60.0,70.0
11706,1155273.0,1425550.0,-169.12,442.33,60.0,70.0
11725,1155290.0,1425551.0,-155.48,419.52,60.0,70.0
11745,1154850.0,1424387.0,-303.91,-25.87,61.1,70.0
11765,1154839.0,1424352.0,-386.7,-295.32,62.0,70.0
11785,1154816.0,1424319.0,-434.1,-456.33,62.5,70.0
11806,1154805.0,1424273.0,-455.62,-555.71,62.9,70.0
11826,1154747.0,1424126.0,-478.67,-653.8,63.2,70.0
11846,1154749.0,1424126.0,-480.32,-695.55,63.4,70.0
11865,1154750.0,1424133.0,-469.97,-701.19,63.5,70.0
11885,1154755.0,1424138.0,-451.51,-686.73,63.6,70.0
11906,1154772.0,1424145.0,-424.34,-660.15,63.7,70.0
11925,1154807.0,1424266.0,-386.23,-585.82,63.7,70.0
11945,1154813.0,1424273.0,-353.3,-527.01,63.8,70.0
11965,1154803.0,1424284.0,-329.78,-476.91,63.8,70.0
11985,1154791.0,1424306.0,-312.96,-429.16,63.8,70.0
12007,1154790.0,1424299.0,-296.5,-394.35,63.8,70.0
12025,1154837.0,1424469.0,-263.21,-303.43,63.8,70.0
12045,1154862.0,1424482.0,-228.87,-239.22,63.8,70.0
12086,1154874.0,1424461.0,-199.47,-204.29,63.8,70.0
12088,1154863.0,1424444.0,-181.94,-185.59,63.8,70.0
12109,1154900.0,1424522.0,-154.3,-142.31,63.8,70.0
12125,1154895.0,1424535.0,-136.55,-109.26,63.8,70.0
12145,1154862.0,1424550.0,-135.13,-82.33,63.8,70.0
12165,1154882.0,1424528.0,-123.96,-72.92,63.8,70.0
12185,1154878.0,1424537.0,-116.2,-62.45,63.8,70.0
12205,1154983.0,1424849.0,-70.92,58.22,63.8,70.0
12225,1155017.0,1424843.0,-30.7,124.55,63.8,70.0
12245,1154996.0,1424873.0,-14.47,170.77,63.8,70.0
12265,1154995.0,1424853.0,-5.17,186.41,63.8,70.0
12285,1155065.0,1425079.0,25.87,273.21,63.8,70.0
12305,1155103.0,1425104.0,56.92,326.25,63.8,70.0
12325,1155092.0,1425089.0,69.51,344.01,63.8,70.0
12345,1155080.0,1425119.0,70.92,357.3,63.8,70.0
12365,1155104.0,1425127.0,78.8,359.65,63.8,70.0
12385,1155169.0,1425284.0,105.14,409.87,63.8,70.0
12405,1155159.0,1425319.0,114.32,442.21,63.8,70.0
12425,1155134.0,1425291.0,107.97,440.69,63.8,70.0
12445,1155180.0,1425280.0,118.55,425.75,63.8,70.0
12465,1155175.0,1425327.0,120.08,424.46,63.8,70.0
12485,1155232.0,1425459.0,139.02,461.97,63.8,70.0
12505,1155245.0,1425485.0,151.48,482.56,63.8,70.0
12525,1155230.0,1425472.0,149.72,478.67,63.8,70.0
12545,1155207.0,1425469.0,137.02,464.44,63.8,70.0
12565,1155134.0,1425266.0,99.97,372.0,63.8,70.0
12585,1155134.0,1425218.0,76.33,292.61,66.6,70.0
12606,1155099.0,1425154.0,48.22,216.87,68.6,70.0
12625,1155061.0,1425118.0,17.17,155.01,70.0,70.0
12645,1155061.0,1425077.0,-1.29,100.91,70.9,70.0
12666,1154662.0,1423943.0,-156.66,-344.36,71.6,70.0
12685,1154642.0,1423943.0,-250.16,-593.81,72.1,70.0
12705,1154622.0,1423928.0,-305.79,-729.89,72.4,70.0
12726,1154631.0,1423925.0,-327.54,-793.05,72.6,70.0
12745,1154687.0,1424061.0,-312.37,-762.0,72.8,70.0
12765,1154692.0,1424064.0,-294.73,-725.54,72.9,70.0
12785,1154654.0,1424056.0,-291.56,-690.84,73.0,70.0
12806,1154693.0,1424074.0,-268.86,-648.5,73.0,70.0
12826,1154694.0,1424070.0,-249.33,-610.63,73.1,70.0
12845,1154705.0,1424177.0,-228.4,-536.07,73.1,70.0
12865,1154711.0,1424212.0,-208.88,-468.09,73.1,70.0
12885,1154724.0,1424173.0,-188.06,-432.22,73.1,70.0
12905,1154739.0,1424205.0,-166.3,-390.11,73.1,70.0
12926,1154751.0,1424303.0,-145.48,-321.31,73.2,70.0
12945,1154730.0,1424296.0,-137.84,-276.62,73.2,70.0
12965,1154746.0,1424287.0,-124.55,-247.8,73.2,70.0
12985,1154754.0,1424259.0,-111.02,-235.69,73.2,70.3
13005,1154787.0,1424289.0,-88.68,-212.4,73.2,70.7
13025,1154811.0,1424479.0,-65.04,-125.14,73.2,71.2
13045,1154820.0,1424474.0,-46.57,-73.62,73.2,71.9
13065,1154822.0,1424485.0,-34.22,-38.22,73.2,72.8
13086,1154832.0,1424461.0,-22.7,-25.64,73.2,73.7
13105,1154818.0,1424505.0,-20.58,-1.76,73.2,74.7
13125,1154953.0,1424820.0,30.11,126.43,73.2,75.7
13145,1154937.0,1424801.0,52.92,190.65,73.2,76.8
13165,1154930.0,1424820.0,62.33,230.28,73.2,77.9
13185,1154937.0,1424813.0,68.92,245.45,73.2,79.1
13205,1155035.0,1425063.0,106.67,339.42,73.2,80.3
13225,1155025.0,1425086.0,122.43,394.23,73.2,81.4
13245,1155044.0,1425059.0,135.6,407.17,73.2,82.6
13265,1155021.0,1425088.0,131.84,415.87,73.2,83.8
13285,1155037.0,1425063.0,132.43,402.34,73.2,84.9
13305,1155092.0,1425269.0,149.72,460.09,73.2,86.0
13325,1155097.0,1425252.0,158.19,476.79,73.2,87.1
13345,1155098.0,1425250.0,159.71,474.91,73.2,88.1
13365,1155095.0,1425286.0,155.95,475.97,73.2,89.1
13386,1155167.0,1425393.0,176.42,504.67,73.2,90.0
13405,1155121.0,1425462.0,167.36,534.66,73.2,90.9
13425,1155188.0,1425461.0,182.65,539.48,73.2,91.7
13445,1155170.0,1425473.0,180.77,534.3,73.2,92.4
13465,1155167.0,1425456.0,174.53,512.9,73.2,93.1
13485,1154771.0,1424400.0,23.17,105.5,70.8,93.7
13505,1154756.0,1424350.0,-70.33,-150.54,69.1,94.3
13526,1154740.0,1424279.0,-128.55,-320.72,67.9,94.9
13545,1154728.0,1424272.0,-163.6,-414.34,67.1,95.4
13565,1154696.0,1424207.0,-191.7,-482.67,66.6,95.8
13586,1154588.0,1423851.0,-242.87,-640.27,66.2,96.2
13605,1154585.0,1423844.0,-267.92,-719.3,65.9,96.6
13626,1154567.0,1423838.0,-282.85,-750.71,65.7,96.9
13646,1154544.0,1423843.0,-293.44,-750.0,65.5,97.3
13666,1154604.0,1423930.0,-271.09,-700.84,65.4,97.5
13686,1154616.0,1423957.0,-247.57,-646.62,65.4,97.8
13706,1154611.0,1423974.0,-230.16,-594.4,65.3,98.0
13727,1154612.0,1423925.0,-214.52,-568.41,65.3,98.2
13746,1154592.0,1423961.0,-207.82,-527.36,65.3,98.4
13766,1154657.0,1424158.0,-175.71,-420.1,65.3,98.5
13786,1154667.0,1424163.0,-149.48,-346.72,65.2,98.7
13806,1154683.0,1424155.0,-125.14,-299.32,65.2,98.8
13826,1154674.0,1424177.0,-111.38,-257.21,65.2,98.9
13846,1154692.0,1424198.0,-94.44,-219.34,65.2,99.0
13865,1154716.0,1424249.0,-73.86,-173.95,65.2,99.1
13886,1154681.0,1424250.0,-72.92,-143.37,65.2,99.2
13905,1154714.0,1424252.0,-58.69,-121.73,65.2,99.3
13926,1154702.0,1424247.0,-53.51,-108.32,65.2,99.4
13945,1154796.0,1424509.0,-15.17,-2.94,65.2,99.4
13965,1154818.0,1424533.0,15.41,66.69,65.2,99.5
13985,1154809.0,1424538.0,29.28,107.14,65.2,99.5
14005,1154806.0,1424569.0,35.64,139.37,65.2,99.6
14025,1154810.0,1424548.0,39.87,147.25,65.2,99.6
14045,1154927.0,1424833.0,83.97,251.8,65.2,99.7
14065,1154897.0,1424830.0,96.68,305.43,65.2,99.7
14085,1154924.0,1424837.0,111.49,331.9,65.2,99.7
14107,1154922.0,1424846.0,116.9,342.95,65.2,99.8
14126,1154990.0,1425004.0,141.96,398.93,65.2,99.8
14145,1154986.0,1424984.0,151.83,414.81,65.2,99.8
14166,1154971.0,1425032.0,148.66,431.98,65.2,99.8
14185,1155011.0,1425026.0,157.83,429.87,65.2,99.8
14205,1154981.0,1424985.0,148.66,403.99,65.2,99.9
14226,1155039.0,1425184.0,161.01,451.98,65.2,99.9
14245,1155024.0,1425195.0,159.01,473.5,65.2,99.9
14265,1155055.0,1425171.0,165.48,466.32,65.2,99.9
14285,1155054.0,1425200.0,165.12,462.21,65.2,99.9
14305,1155117.0,1425353.0,184.06,504.78,65.2,99.9
14326,1155082.0,1425347.0,178.06,515.72,65.2,99.9
14345,1155107.0,1425345.0,179.59,509.49,65.2,99.9
14365,1155119.0,1425382.0,180.77,507.72,65.2,99.9
14385,1155100.0,1425385.0,170.42,496.2,65.2,99.9
14405,1154764.0,1424375.0,38.46,111.61,65.7,99.9
14426,1154730.0,1424331.0,-50.93,-129.14,66.0,100.0
14446,1154710.0,1424274.0,-108.67,-286.03,66.2,100.0
14466,1154703.0,1424189.0,-142.07,-400.93,66.3,100.0
14486,1154672.0,1424179.0,-169.48,-461.74,66.4,100.0
14506,1154517.0,1423721.0,-237.69,-652.74,66.5,100.0
14526,1154512.0,1423707.0,-273.56,-753.29,66.5,100.0
14546,1154499.0,1423710.0,-292.61,-793.05,66.6,100.0
14566,1154516.0,1423719.0,-290.85,-794.69,66.6,100.0
14586,1154535.0,1423838.0,-276.27,-734.36,66.6,100.0
14606,1154534.0,1423860.0,-261.92,-674.73,66.6,100.0
14626,1154548.0,1423823.0,-242.51,-638.39,66.6,100.0
14646,1154533.0,1423764.0,-231.22,-624.16,66.7,100.0
14666,1154523.0,1423855.0,-223.11,-568.65,66.7,100.0
14686,1154598.0,1424008.0,-186.06,-468.09,66.7,100.0
14706,1154628.0,1424027.0,-149.48,-392.47,66.7,100.0
14726,1154616.0,1424028.0,-129.37,-339.42,66.7,100.0
14746,1154611.0,1424001.0,-116.55,-310.73,66.7,100.0
14766,1154622.0,1424016.0,-102.56,-281.68,66.7,100.0
14786,1154625.0,1424040.0,-90.91,-249.8,66.7,100.0
14806,1154574.0,1424043.0,-100.67,-224.52,66.7,100.0
14826,1154619.0,1424065.0,-87.62,-196.76,66.7,100.0
14846,1154626.0,1424035.0,-75.62,-187.12,66.7,100.0
14865,1154714.0,1424263.0,-35.05,-94.56,66.7,100.0
14885,1154701.0,1424315.0,-15.41,-19.99,66.7,100.0
14905,1154705.0,1424307.0,-2.23,20.58,66.7,100.0
14925,1154718.0,1424326.0,10.11,50.57,66.7,100.0
14946,1154836.0,1424599.0,59.86,165.83,66.7,100.0
14965,1154799.0,1424611.0,73.86,233.1,66.7,100.0
14985,1154826.0,1424621.0,89.97,270.15,66.7,100.0
15005,1154830.0,1424651.0,98.79,296.38,66.7,100.0
15025,1154813.0,1424629.0,95.38,296.73,66.7,100.0
15046,1154915.0,1424830.0,128.31,363.18,66.7,100.0
15066,1154922.0,1424849.0,147.01,400.11,66.7,100.0
15085,1154912.0,1424851.0,150.78,413.05,66.7,100.0
15105,1154915.0,1424825.0,150.54,401.64,66.7,100.0
15126,1154936.0,1424857.0,154.54,397.52,66.7,100.0
15146,1154957.0,1425034.0,161.01,450.33,66.7,100.0
15165,1154963.0,1425022.0,163.24,466.21,66.7,100.0
15185,1154961.0,1425025.0,160.07,465.97,66.7,100.0
15205,1154971.0,1425048.0,158.3,463.5,66.7,100.0
15225,1154851.0,1424652.0,109.97,307.67,66.7,100.0
15245,1154819.0,1424608.0,67.98,194.65,68.1,100.0
15265,1154829.0,1424593.0,45.87,119.49,69.1,100.0
15286,1154795.0,1424512.0,19.64,43.87,69.8,100.0
15305,1154780.0,1424460.0,-1.41,-19.64,70.3,100.0
15326,1154386.0,1423420.0,-156.54,-433.51,70.6,100.0
15346,1154398.0,1423419.0,-238.28,-663.09,70.9,100.0
15366,1154385.0,1423439.0,-284.73,-773.41,71.0,100.0
15386,1154401.0,1423403.0,-299.32,-832.56,71.2,100.0
15406,1154473.0,1423589.0,-274.86,-780.23,71.2,100.0
15426,1154461.0,1423618.0,-258.74,-721.66,71.3,100.0
15446,1154460.0,1423616.0,-243.92,-672.03,71.3,100.0
15466,1154460.0,1423609.0,-229.69,-630.63,71.4,100.0
15486,1154477.0,1423612.0,-210.17,-591.23,71.4,100.0
15506,1154518.0,1423803.0,-179.12,-485.61,71.4,100.0
15526,1154518.0,1423800.0,-157.13,-414.58,71.4,100.0
15546,1154526.0,1423805.0,-137.96,-362.36,71.4,100.0
15566,1154519.0,1423859.0,-126.31,-304.26,71.4,100.0
15586,1154528.0,1423815.0,-113.49,-279.79,71.4,100.0
15606,1154539.0,1423865.0,-99.38,-240.98,71.4,100.0
15626,1154516.0,1423877.0,-97.38,-208.76,71.4,100.0
15646,1154529.0,1423882.0,-89.27,-183.59,71.4,100.0
15666,1154507.0,1423894.0,-90.56,-160.54,71.4,100.0
15686,1154602.0,1424146.0,-54.69,-51.98,71.4,100.0
15705,1154650.0,1424125.0,-15.41,4.23,71.4,100.0
15725,1154639.0,1424179.0,3.76,56.34,71.4,100.0
15745,1154626.0,1424146.0,10.0,73.15,71.4,100.0
15765,1154638.0,1424176.0,17.76,92.09,71.4,100.0
15785,1154784.0,1424518.0,74.8,225.11,71.4,100.0
15805,1154741.0,1424515.0,90.44,295.67,71.4,100.0
15826,1154769.0,1424533.0,107.61,336.25,71.4,100.0
15846,1154772.0,1424544.0,116.2,356.01,71.4,100.0
15865,1154840.0,1424748.0,143.25,433.39,71.4,100.0
15885,1154872.0,1424758.0,167.12,471.85,71.4,100.0
15905,1154867.0,1424756.0,175.36,482.56,71.4,100.0
15925,1154850.0,1424758.0,169.95,478.44,71.4,100.0
15946,1154855.0,1424760.0,164.77,465.97,71.4,100.0
15965,1154913.0,1424971.0,179.12,524.66,71.4,100.0
16006,1154936.0,1424952.0,191.59,539.71,71.4,100.0
16008,1154928.0,1424950.0,191.59,535.48,71.4,100.0
16027,1154906.0,1424944.0,179.24,518.66,71.4,100.0
16046,1154926.0,1424978.0,175.24,509.37,71.4,100.0
16066,1155008.0,1425182.0,198.76,566.41,71.4,100.0
16085,1154995.0,1425157.0,203.11,577.35,71.4,100.0
16106,1154977.0,1425150.0,194.41,567.94,71.4,100.0
16126,1154982.0,1425163.0,186.77,554.42,71.4,100.0
16146,1154512.0,1423845.0,7.41,55.28,69.6,100.0
16166,1154516.0,1423797.0,-94.91,-251.8,68.3,100.0
16186,1154432.0,1423765.0,-182.41,-434.92,67.3,100.0
16206,1154454.0,1423703.0,-220.75,-553.36,66.7,100.0
16226,1154438.0,1423685.0,-243.69,-615.81,66.3,100.0
16246,1154382.0,1423533.0,-271.8,-692.96,65.9,100.0
16266,1154386.0,1423508.0,-280.27,-730.83,65.7,100.0
16286,1154408.0,1423530.0,-270.86,-728.13,65.6,100.0
16306,1154387.0,1423532.0,-266.86,-709.19,65.5,100.0
16326,1154408.0,1423597.0,-250.86,-658.5,65.4,100.0
16346,1154400.0,1423626.0,-238.75,-603.69,65.3,100.0
16366,1154413.0,1423602.0,-221.58,-567.0,65.3,100.0
16386,1154434.0,1423613.0,-199.0,-528.78,65.3,100.0
16406,1154427.0,1423626.0,-183.94,-489.96,65.3,100.0
16426,1154508.0,1423891.0,-141.72,-360.12,65.2,100.0
16446,1154514.0,1423879.0,-111.85,-281.32,65.2,100.0
16466,1154521.0,1423858.0,-89.62,-236.98,65.2,100.0
16486,1154517.0,1423838.0,-76.09,-213.23,65.2,100.0
16506,1154565.0,1423867.0,-49.16,-184.06,65.2,100.0
16526,1154537.0,1423903.0,-42.57,-149.84,65.2,100.0
16546,1154525.0,1423929.0,-42.22,-117.38,65.2,100.0
16566,1154532.0,1423959.0,-38.58,-85.03,65.2,100.0
16586,1154532.0,1423945.0,-35.52,-69.39,65.2,100.0
16605,1154646.0,1424232.0,8.47,45.4,65.2,100.0
16626,1154664.0,1424267.0,40.22,123.37,65.2,100.0
16646,1154658.0,1424249.0,55.51,159.13,65.2,100.0
16666,1154638.0,1424236.0,55.75,171.36,65.2,100.0
16685,1154650.0,1424285.0,59.04,192.41,65.2,100.0
16706,1154789.0,1424609.0,109.97,317.67,65.2,100.0
16726,1154791.0,1424639.0,137.72,393.76,65.2,100.0
16746,1154795.0,1424637.0,152.07,427.98,65.2,100.0
16766,1154799.0,1424630.0,158.3,435.51,65.2,100.0
16786,1154867.0,1424852.0,182.88,510.55,65.2,100.0
16806,1154868.0,1424849.0,193.35,541.13,65.2,100.0
16826,1154816.0,1424872.0,176.18,554.77,65.2,100.0
16846,1154869.0,1424858.0,181.36,544.89,65.2,100.0
16866,1154893.0,1424864.0,189.0,529.01,65.2,100.0
16886,1154936.0,1425054.0,204.76,576.76,65.2,100.0
16906,1154930.0,1425050.0,206.99,589.7,65.2,100.0
16926,1154944.0,1425071.0,208.64,591.34,65.2,100.0
16946,1154935.0,1425091.0,201.47,586.05,65.2,100.0
16966,1155022.0,1425241.0,224.4,624.04,65.2,100.0
16986,1154994.0,1425251.0,222.28,635.45,65.2,100.0
17006,1155004.0,1425238.0,219.58,622.86,65.2,100.0
17026,1155009.0,1425220.0,214.99,594.87,65.2,100.0
17046,1154994.0,1425209.0,201.94,561.12,65.2,100.0
17066,1154481.0,1423788.0,3.41,12.94,65.7,100.0
17086,1154450.0,1423752.0,-122.55,-317.31,66.0,100.0
17106,1154454.0,1423724.0,-191.0,-511.13,66.2,100.0
17126,1154428.0,1423670.0,-235.69,-630.98,66.3,100.0
17146,1154442.0,1423665.0,-251.1,-687.67,66.4,100.0
17166,1154415.0,1423698.0,-264.15,-692.72,66.5,100.0
17186,1154433.0,1423712.0,-258.98,-674.85,66.5,100.0
17206,1154459.0,1423711.0,-240.75,-649.44,66.6,100.0
17226,1154443.0,1423705.0,-230.52,-622.16,66.6,100.0
17246,1154434.0,1423744.0,-222.64,-577.94,66.6,100.0
17266,1154446.0,1423726.0,-208.64,-545.71,66.6,100.0
17286,1154450.0,1423774.0,-194.29,-497.37,66.6,100.0
17306,1154467.0,1423736.0,-175.36,-471.85,66.7,100.0
17326,1154438.0,1423763.0,-171.01,-436.57,66.7,100.0
17346,1154540.0,1423992.0,-127.49,-323.08,66.7,100.0
17366,1154527.0,1423981.0,-104.2,-254.16,66.7,100.0
17386,1154522.0,1423981.0,-90.21,-208.52,66.7,100.0
17406,1154560.0,1423982.0,-66.33,-177.0,66.7,100.0
17427,1154548.0,1424011.0,-55.39,-144.19,66.7,100.0
17446,1154525.0,1424059.0,-56.1,-104.56,66.7,100.0
17466,1154551.0,1424068.0,-45.87,-75.98,66.7,100.0
17486,1154542.0,1424079.0,-42.1,-53.75,66.7,100.0
17506,1154560.0,1424088.0,-32.46,-36.34,66.7,100.0
17525,1154667.0,1424402.0,12.7,88.44,66.7,100.0
17546,1154672.0,1424396.0,40.34,156.42,66.7,100.0
17566,1154672.0,1424391.0,55.39,190.18,66.7,100.0
17586,1154658.0,1424438.0,57.75,222.52,66.7,100.0
17606,1154676.0,1424416.0,64.33,228.05,66.7,100.0
17626,1154762.0,1424650.0,97.97,310.96,66.7,100.0
17646,1154754.0,1424637.0,112.2,347.19,66.7,100.0
17666,1154762.0,1424633.0,120.79,358.71,66.7,100.0
17686,1154765.0,1424658.0,124.08,366.24,66.7,100.0
17706,1154820.0,1424825.0,143.13,422.93,66.7,100.0
17726,1154796.0,1424834.0,142.19,449.15,66.7,100.0
17746,1154809.0,1424849.0,143.13,459.5,66.7,100.0
17766,1154790.0,1424853.0,133.49,456.56,66.7,100.0
17786,1154835.0,1424856.0,141.25,445.51,66.7,100.0
17806,1154903.0,1425037.0,167.12,494.67,66.7,100.0
17826,1154901.0,1425055.0,177.59,518.31,66.7,100.0
17846,1154894.0,1425042.0,177.0,515.37,66.7,100.0
17866,1154919.0,1425056.0,181.71,507.02,66.7,100.0
17886,1154599.0,1424164.0,64.22,166.77,68.1,100.0
17906,1154591.0,1424158.0,-8.12,-35.75,69.1,100.0
17926,1154553.0,1424060.0,-63.51,-187.59,69.8,100.0
17946,1154523.0,1424036.0,-104.91,-279.79,70.3,100.0
17966,1154501.0,1423993.0,-134.43,-342.25,70.6,100.0
17986,1154336.0,1423522.0,-208.29,-541.6,70.9,100.0
18006,1154331.0,1423525.0,-248.04,-643.33,71.0,100.0
18026,1154333.0,1423539.0,-264.62,-682.38,71.2,100.0
18046,1154333.0,1423567.0,-268.15,-679.2,71.2,100.0
18066,1154332.0,1423558.0,-264.39,-665.09,71.3,100.0
18086,1154371.0,1423671.0,-242.04,-600.75,71.3,100.0
18106,1154369.0,1423663.0,-224.4,-552.77,71.4,100.0
18126,1154386.0,1423664.0,-202.88,-512.08,71.4,100.0
18146,1154374.0,1423681.0,-190.18,-470.79,71.4,100.0
18166,1154480.0,1423922.0,-139.96,-348.6,71.4,100.0
18186,1154470.0,1423930.0,-111.38,-267.21,71.4,100.0
18206,1154429.0,1423957.0,-107.26,-204.29,71.4,100.0
18226,1154459.0,1423940.0,-91.5,-169.36,71.4,100.0
18246,1154476.0,1423929.0,-74.09,-149.37,71.4,100.0
18266,1154489.0,1423991.0,-57.75,-111.85,71.4,100.0
18286,1154489.0,1423970.0,-46.93,-95.38,71.4,100.0
18306,1154487.0,1423971.0,-40.34,-83.27,71.4,100.0
18326,1154482.0,1423998.0,-37.4,-64.57,71.4,100.0
18345,1154591.0,1424259.0,4.7,42.46,71.4,100.0
18366,1154566.0,1424251.0,19.88,100.44,71.4,100.0
18386,1154596.0,1424272.0,39.05,139.37,71.4,100.0
18406,1154599.0,1424263.0,50.34,155.36,71.4,100.0
18426,1154600.0,1424299.0,56.1,174.06,71.4,100.0
18446,1154675.0,1424572.0,85.39,280.15,71.4,100.0
18466,1154737.0,1424567.0,122.79,333.19,71.4,100.0
18486,1154696.0,1424575.0,126.78,359.18,71.4,100.0
18506,1154690.0,1424538.0,123.96,352.48,71.4,100.0
18543,1154742.0,1424594.0,138.43,360.95,71.4,100.0
18546,1154759.0,1424714.0,149.72,401.29,71.4,100.0
18566,1154752.0,1424735.0,150.42,422.93,71.4,100.0
18586,1154770.0,1424744.0,153.83,429.04,71.4,100.0
18606,1154764.0,1424758.0,150.19,427.87,71.4,100.0
18626,1154797.0,1424898.0,156.66,468.32,71.4,100.0
18646,1154820.0,1424928.0,165.12,491.96,71.4,100.0
18666,1154834.0,1424916.0,171.36,489.96,71.4,100.0
18686,1154787.0,1424929.0,153.95,482.44,71.4,100.0
18706,1154820.0,1424933.0,152.42,468.56,71.4,100.0
18726,1154691.0,1424522.0,101.14,300.49,71.7,100.0
18746,1154667.0,1424488.0,60.57,184.3,71.9,100.0
18766,1154644.0,1424420.0,27.4,88.09,72.3,100.0
18785,1154627.0,1424364.0,1.41,10.35,72.5,100.0
18806,1154204.0,1423292.0,-167.24,-424.1,72.7,100.0
18826,1154206.0,1423280.0,-260.15,-669.79,72.9,100.0
18846,1154188.0,1423309.0,-314.37,-785.87,73.0,100.0
18866,1154220.0,1423276.0,-326.96,-847.03,73.0,100.0
18886,1154227.0,1423302.0,-324.25,-853.62,73.1,100.0
18906,1154281.0,1423460.0,-295.67,-780.58,73.1,100.0
18926,1154270.0,1423455.0,-276.38,-722.48,73.1,100.0
18946,1154254.0,1423456.0,-264.74,-672.03,73.1,100.0
18966,1154256.0,1423474.0,-251.33,-620.98,73.1,100.0
18987,1154344.0,1423640.0,-205.82,-517.01,73.2,100.0
19006,1154318.0,1423615.0,-184.3,-454.33,73.2,100.0
19026,1154331.0,1423631.0,-162.89,-401.99,73.2,100.0
19046,1154342.0,1423649.0,-142.9,-356.01,73.2,100.0
19066,1154336.0,1423659.0,-130.19,-317.67,73.2,100.0
19087,1154352.0,1423746.0,-114.08,-256.63,73.2,100.0
19106,1154362.0,1423753.0,-98.68,-212.99,73.2,100.0
19126,1154354.0,1423764.0,-90.32,-178.89,73.2,100.0
19146,1154354.0,1423740.0,-83.5,-163.83,73.2,100.0
19167,1154362.0,1423776.0,-74.68,-138.43,73.2,100.0
19186,1154434.0,1423982.0,-41.75,-45.63,73.2,100.0
19206,1154430.0,1423977.0,-23.17,7.17,73.2,100.0
19226,1154433.0,1424005.0,-10.82,47.63,73.2,100.0
19246,1154458.0,1424009.0,5.53,71.39,73.2,100.0
19266,1154573.0,1424324.0,56.57,197.82,73.2,100.0
19286,1154580.0,1424351.0,87.5,276.27,73.2,100.0
19306,1154550.0,1424376.0,92.44,324.37,73.2,100.0
19326,1154567.0,1424385.0,99.38,348.01,73.2,100.0
19346,1154572.0,1424408.0,102.91,362.0,73.2,100.0
19366,1154666.0,1424607.0,136.66,434.1,73.2,100.0
19386,1154643.0,1424583.0,144.66,457.27,73.2,100.0
19406,1154649.0,1424611.0,148.19,470.32,73.2,100.0
19426,1154664.0,1424609.0,152.42,466.44,73.2,100.0
19447,1154709.0,1424732.0,167.59,498.2,73.2,100.0
19466,1154692.0,1424764.0,166.42,516.78,73.2,100.0
19486,1154704.0,1424767.0,166.3,516.9,73.2,100.0
19506,1154711.0,1424795.0,164.89,515.25,73.2,100.0
19526,1154755.0,1424801.0,176.3,504.78,73.2,100.0
19546,1154770.0,1424974.0,184.3,549.95,73.2,100.0
19566,1154806.0,1424975.0,197.7,563.94,73.2,100.0
19586,1154774.0,1424966.0,189.47,555.94,73.2,100.0
19606,1154793.0,1424986.0,187.24,545.95,73.2,100.0
19626,1154800.0,1425002.0,184.3,533.48,73.2,100.0
19646,1154718.0,1424789.0,148.54,436.8,73.2,100.0
19666,1154723.0,1424780.0,126.31,367.65,70.8,100.0
19686,1154676.0,1424723.0,93.62,298.61,69.1,100.0
19706,1154667.0,1424675.0,69.27,234.51,67.9,100.0
19726,1154139.0,1423247.0,-138.07,-326.37,67.1,100.0
19746,1154133.0,1423236.0,-256.98,-646.97,66.6,100.0
19766,1154117.0,1423242.0,-325.66,-815.27,66.2,100.0
19786,1154123.0,1423204.0,-355.65,-907.72,65.9,100.0
19806,1154139.0,1423198.0,-359.06,-942.65,65.7,100.0
19826,1154192.0,1423397.0,-333.66,-869.02,65.5,100.0
19846,1154172.0,1423356.0,-318.61,-821.63,65.4,100.0
19866,1154184.0,1423363.0,-298.26,-772.93,65.4,100.0
19886,1154188.0,1423362.0,-278.27,-727.54,65.3,100.0
19907,1154189.0,1423404.0,-260.04,-669.32,65.3,100.0
19926,1154185.0,1423450.0,-244.98,-603.81,65.3,100.0
19946,1154213.0,1423455.0,-220.52,-550.3,65.3,100.0
19966,1154231.0,1423451.0,-194.76,-508.31,65.2,100.0
19986,1154227.0,1423477.0,-176.89,-463.03,65.2,100.0
20006,1154274.0,1423602.0,-145.48,-380.82,65.2,100.0
20026,1154268.0,1423602.0,-126.2,-324.72,65.2,100.0
20046,1154259.0,1423583.0,-115.49,-291.79,65.2,100.0
20066,1154251.0,1423615.0,-109.61,-254.51,65.2,100.0
20086,1154237.0,1423576.0,-108.79,-241.22,65.2,100.0
20106,1154301.0,1423734.0,-82.56,-170.77,65.2,100.0
20126,1154314.0,1423728.0,-60.8,-128.31,65.2,100.0
20146,1154285.0,1423725.0,-57.28,-101.97,65.2,100.0
20166,1154298.0,1423725.0,-49.28,-84.44,65.2,100.0
20186,1154427.0,1424053.0,3.41,46.69,65.2,100.0
20206,1154432.0,1424046.0,35.52,118.9,65.2,100.0
20226,1154439.0,1424075.0,55.75,168.42,65.2,100.0
20246,1154422.0,1424065.0,59.98,189.47,65.2,100.0
20266,1154434.0,1424072.0,65.51,199.94,65.2,100.0
20286,1154512.0,1424336.0,95.5,297.32,65.2,100.0
20306,1154538.0,1424341.0,120.08,348.6,65.2,100.0
20326,1154527.0,1424344.0,127.61,371.41,65.2,100.0
20346,1154525.0,1424340.0,128.31,374.59,65.2,100.0
20367,1154600.0,1424558.0,153.01,447.04,65.2,100.0
20386,1154629.0,1424589.0,174.3,489.96,65.2,100.0
20406,1154600.0,1424578.0,172.06,499.61,65.2,100.0
20426,1154609.0,1424592.0,170.18,498.9,65.2,100.0
20446,1154634.0,1424609.0,174.18,493.26,65.2,100.0
20466,1154682.0,1424764.0,189.94,535.01,65.2,100.0
20486,1154658.0,1424792.0,186.18,557.12,65.2,100.0
20506,1154694.0,1424792.0,192.65,557.12,65.2,100.0
20526,1154666.0,1424786.0,181.83,542.3,65.2,100.0
20546,1154699.0,1424771.0,183.47,515.84,65.2,100.0
20566,1154775.0,1425008.0,207.94,574.88,65.2,100.0
20596,1154737.0,1424975.0,203.35,583.94,65.2,100.0
20606,1154773.0,1424991.0,209.23,581.58,65.2,100.0
20627,1154770.0,1424982.0,206.76,563.71,65.2,100.0
20646,1154326.0,1423810.0,39.4,115.02,63.3,100.0
20666,1154298.0,1423766.0,-68.33,-162.77,62.0,100.0
20686,1154282.0,1423678.0,-134.9,-351.54,61.0,100.0
20706,1154250.0,1423674.0,-181.83,-453.98,60.4,100.0
20726,1154234.0,1423598.0,-210.76,-530.42,59.9,100.0
20746,1154113.0,1423292.0,-266.5,-673.67,59.6,100.0
20766,1154134.0,1423294.0,-284.97,-740.24,59.4,100.0
20786,1154103.0,1423286.0,-300.49,-764.82,59.2,100.0
20806,1154105.0,1423275.0,-301.79,-765.64,59.1,100.0
20826,1154156.0,1423370.0,-277.21,-714.01,59.0,100.0
20846,1154157.0,1423364.0,-256.27,-670.14,58.9,100.0
20866,1154106.0,1423375.0,-256.86,-625.45,58.9,100.0
20886,1154143.0,1423373.0,-237.93,-586.17,58.9,100.0
20906,1154128.0,1423358.0,-226.99,-555.47,58.9,100.0
20926,1154231.0,1423619.0,-178.06,-430.34,58.9,100.0
20946,1154239.0,1423632.0,-142.78,-343.54,58.8,100.0
20966,1154232.0,1423644.0,-121.73,-281.09,58.8,100.0
20986,1154224.0,1423650.0,-109.73,-236.51,58.8,100.0
21008,1154261.0,1423687.0,-86.8,-191.94,58.8,100.0
21026,1154276.0,1423682.0,-66.1,-163.6,58.8,100.0
21046,1154265.0,1423682.0,-56.69,-143.48,58.8,100.0
21066,1154260.0,1423688.0,-51.75,-126.43,58.8,100.0
21086,1154264.0,1423713.0,-46.34,-104.56,58.8,100.0
21106,1154371.0,1423975.0,-3.29,5.65,58.8,100.0
21132,1154357.0,1423977.0,16.58,69.74,58.8,100.0
21146,1154372.0,1424011.0,33.17,117.61,58.8,100.0
21166,1154352.0,1423993.0,34.7,136.08,58.8,100.0
21186,1154390.0,1424033.0,48.69,158.19,58.8,100.0
21206,1154462.0,1424322.0,81.86,272.15,58.8,100.0
21226,1154484.0,1424321.0,107.03,331.54,58.8,100.0
21246,1154482.0,1424313.0,118.43,355.3,58.8,100.0
21266,1154486.0,1424311.0,123.73,360.24,58.8,100.0
21286,1154535.0,1424479.0,141.84,415.87,58.8,100.0
21306,1154556.0,1424499.0,156.66,445.74,58.8,100.0
21326,1154546.0,1424494.0,157.95,451.04,58.8,100.0
21346,1154563.0,1424509.0,161.36,449.27,58.8,100.0
21366,1154572.0,1424522.0,162.89,442.69,58.8,100.0
21386,1154626.0,1424706.0,179.71,495.49,58.8,100.0
21406,1154625.0,1424670.0,185.0,501.73,58.8,100.0
21426,1154607.0,1424713.0,177.24,509.49,58.8,100.0
21446,1154604.0,1424715.0,167.59,503.14,58.8,100.0
21467,1154651.0,1424798.0,175.36,518.07,58.8,100.0
21486,1154644.0,1424807.0,173.24,518.19,58.8,100.0
21506,1154661.0,1424749.0,174.3,485.5,58.8,100.0
21526,1154625.0,1424743.0,157.72,453.27,58.8,100.0
21546,1154617.0,1424707.0,141.72,411.17,58.8,100.0
21566,1154057.0,1423245.0,-73.98,-153.36,61.2,100.0
21587,1154075.0,1423222.0,-190.53,-484.32,62.8,100.0
21606,1154063.0,1423176.0,-257.8,-681.32,64.0,100.0
21626,1154581.0,1424612.0,-102.67,-258.27,64.8,100.0
21646,1154039.0,1423162.0,-207.46,-534.3,65.3,100.0
21666,1154138.0,1423334.0,-227.46,-619.1,65.7,100.0
21687,1154104.0,1423318.0,-246.16,-659.79,66.0,100.0
21706,1154127.0,1423347.0,-242.98,-657.68,66.2,100.0
21726,1154089.0,1423357.0,-249.33,-637.8,66.4,100.0
21746,1154137.0,1423432.0,-229.93,-584.52,66.4,100.0
21766,1154127.0,1423431.0,-217.11,-540.89,66.5,100.0
21786,1154131.0,1423448.0,-203.23,-497.14,66.6,100.0
21806,1154142.0,1423457.0,-186.65,-457.15,66.6,100.0
21826,1154142.0,1423475.0,-172.77,-417.16,66.6,100.0
21846,1154200.0,1423626.0,-139.72,-329.66,66.6,100.0
21866,1154217.0,1423608.0,-111.38,-278.15,66.6,100.0
21886,1154185.0,1423610.0,-104.09,-241.22,66.6,100.0
21906,1154181.0,1423603.0,-98.91,-216.99,66.7,100.0
21927,1154237.0,1423701.0,-73.27,-162.54,66.7,100.0
21946,1154224.0,1423746.0,-61.51,-110.91,66.7,100.0
21966,1154261.0,1423748.0,-39.87,-77.74,66.7,100.0
21986,1154270.0,1423766.0,-23.17,-50.34,66.7,100.0
22006,1154272.0,1423777.0,-12.23,-29.4,66.7,100.0
22026,1154376.0,1424108.0,31.99,103.5,66.7,100.0
22046,1154393.0,1424092.0,63.04,172.18,66.7,100.0
22066,1154365.0,1424114.0,69.39,215.81,66.7,100.0
22086,1154396.0,1424124.0,82.68,239.93,66.7,100.0
22106,1154378.0,1424135.0,81.97,252.27,66.7,100.0
22126,1154466.0,1424359.0,111.61,334.95,66.7,100.0
22146,1154469.0,1424372.0,127.25,379.88,66.7,100.0
22166,1154473.0,1424374.0,134.9,397.88,66.7,100.0
22186,1154506.0,1424394.0,148.19,406.46,66.7,100.0
22206,1154529.0,1424520.0,160.89,447.86,66.7,100.0
22226,1154518.0,1424563.0,160.54,477.15,66.7,100.0
22246,1154565.0,1424580.0,173.71,489.38,66.7,100.0
22266,1154533.0,1424547.0,165.83,473.38,66.7,100.0
22286,1154541.0,1424557.0,160.42,456.92,66.7,100.0
22306,1154598.0,1424745.0,174.18,505.25,66.7,100.0
22326,1154599.0,1424739.0,178.53,519.48,66.7,100.0
22346,1154604.0,1424764.0,178.77,524.89,66.7,100.0
22366,1154617.0,1424741.0,179.59,507.72,66.7,100.0
22387,1154233.0,1423731.0,36.58,119.61,67.6,100.0
22406,1154198.0,1423745.0,-59.63,-102.44,68.2,100.0
22426,1154217.0,1423663.0,-106.91,-258.15,68.7,100.0
22446,1154191.0,1423604.0,-141.25,-363.65,69.0,100.0
22466,1154148.0,1423550.0,-173.48,-435.86,69.2,100.0
22486,1153970.0,1422998.0,-252.74,-668.14,69.4,100.0
22506,1153966.0,1423017.0,-294.26,-780.23,69.5,100.0
22526,1153974.0,1423028.0,-308.61,-823.15,69.6,100.0
22547,1153978.0,1423041.0,-308.49,-824.45,69.6,100.0
22566,1153970.0,1423083.0,-304.26,-791.16,69.7,100.0
22586,1154009.0,1423172.0,-280.74,-721.54,69.7,100.0
22606,1154002.0,1423156.0,-263.21,-670.61,69.7,100.0
22626,1154017.0,1423186.0,-241.69,-614.98,69.7,100.0
22646,1154042.0,1423182.0,-214.64,-570.29,69.7,100.0
22666,1154123.0,1423415.0,-164.77,-446.8,69.8,100.0
22686,1154138.0,1423444.0,-126.67,-354.71,69.8,100.0
22706,1154114.0,1423476.0,-110.44,-281.91,69.8,100.0
22726,1154101.0,1423450.0,-103.26,-242.75,69.8,100.0
22746,1154105.0,1423442.0,-95.26,-217.58,69.8,100.0
22766,1154114.0,1423485.0,-85.27,-182.41,69.8,100.0
22786,1154125.0,1423509.0,-73.51,-149.25,69.8,100.0
22806,1154127.0,1423493.0,-64.33,-132.55,69.8,100.0
22826,1154129.0,1423483.0,-56.92,-123.37,69.8,100.0
22847,1154224.0,1423726.0,-16.7,-27.05,69.8,100.0
22866,1154231.0,1423779.0,9.29,48.46,69.8,100.0
22886,1154237.0,1423774.0,26.34,89.15,69.8,100.0
22906,1154224.0,1423784.0,30.93,114.32,69.8,100.0
22926,1154233.0,1423786.0,35.99,127.02,69.8,100.0
22946,1154325.0,1424051.0,71.62,227.58,69.8,100.0
22966,1154331.0,1424055.0,92.68,282.03,69.8,100.0
22986,1154327.0,1424064.0,101.26,310.26,69.8,100.0
23007,1154334.0,1424085.0,106.44,327.07,69.8,100.0
23026,1154347.0,1424079.0,111.73,327.19,69.8,100.0
23046,1154399.0,1424269.0,131.14,388.82,69.8,100.0
23066,1154425.0,1424266.0,148.78,414.58,69.8,100.0
23086,1154420.0,1424267.0,153.72,420.34,69.8,100.0
23107,1154406.0,1424259.0,148.07,411.17,69.8,100.0
23126,1154465.0,1424422.0,162.89,455.62,69.8,100.0
23146,1154469.0,1424445.0,169.12,479.26,69.8,100.0
23166,1154445.0,1424427.0,160.19,475.5,69.8,100.0
23186,1154467.0,1424432.0,159.24,464.33,69.8,100.0
23206,1154476.0,1424430.0,158.42,446.57,69.8,100.0
23226,1154492.0,1424494.0,160.07,449.39,69.8,100.0
23246,1154484.0,1424460.0,154.54,428.34,69.8,100.0
23266,1154490.0,1424414.0,149.95,389.76,69.8,100.0
23286,1154468.0,1424408.0,135.96,356.36,69.8,100.0
23307,1153828.0,1422710.0,-107.61,-287.56,71.3,100.0
23326,1153800.0,1422695.0,-256.04,-658.5,72.4,100.0
23346,1153832.0,1422664.0,-324.37,-869.02,73.2,100.0
23366,1153787.0,1422645.0,-372.82,-977.69,73.7,100.0
23386,1153784.0,1422616.0,-393.41,-1028.86,74.1,100.0
23407,1153844.0,1422757.0,-374.47,-983.69,74.4,100.0
23426,1153838.0,1422757.0,-357.18,-935.24,74.6,100.0
23446,1153834.0,1422748.0,-340.48,-889.13,74.7,100.0
23466,1153854.0,1422708.0,-315.78,-856.67,76.0,100.0
23486,1153869.0,1422761.0,-288.85,-799.16,76.9,100.0
23508,1153834.0,1422748.0,-279.44,-752.35,77.5,100.0
23526,1153816.0,1422758.0,-274.27,-704.6,77.9,100.0
23546,1153825.0,1422766.0,-261.68,-658.03,78.2,100.0
23567,1153847.0,1422782.0,-240.4,-610.28,78.4,100.0
23586,1153893.0,1422967.0,-205.94,-501.61,78.6,100.0
23607,1153887.0,1422955.0,-183.47,-431.75,77.5,100.0
23626,1153891.0,1422950.0,-164.89,-383.29,76.8,100.0
23646,1153869.0,1422936.0,-158.3,-351.65,76.2,100.0
23666,1153900.0,1422952.0,-139.6,-319.55,75.9,100.0
23686,1153910.0,1422960.0,-122.08,-290.73,75.6,100.0
23707,1153896.0,1422991.0,-114.32,-256.27,75.4,100.0
23726,1153899.0,1422986.0,-106.08,-232.28,75.3,100.0
23769,1153895.0,1422991.0,-100.44,-211.23,75.2,100.0
23771,1154008.0,1423270.0,-53.87,-93.03,75.1,100.0
23786,1154008.0,1423267.0,-25.64,-23.64,75.1,100.0
23806,1154011.0,1423282.0,-7.64,22.46,75.1,100.0
23826,1154010.0,1423273.0,2.59,45.28,75.0,100.0
23846,1154045.0,1423282.0,21.17,60.69,75.0,100.0
23866,1154116.0,1423545.0,57.04,163.6,75.0,100.0
23886,1154133.0,1423550.0,82.68,221.23,75.0,100.0
23906,1154144.0,1423559.0,99.62,252.74,75.0,100.0
23926,1154126.0,1423574.0,100.56,270.62,75.0,100.0
23947,1154209.0,1423748.0,128.9,338.01,75.0,100.0
23967,1154197.0,1423754.0,137.96,371.41,75.0,100.0
23986,1154201.0,1423757.0,141.6,383.29,75.0,100.0
24006,1154219.0,1423768.0,147.01,385.41,75.0,100.0
24027,1154201.0,1423770.0,140.19,378.47,75.0,100.0
24046,1154292.0,1423978.0,166.18,441.51,75.0,100.0
24066,1154304.0,1423975.0,181.71,466.68,75.0,100.0
24086,1154280.0,1423977.0,177.83,471.26,75.0,100.0
24107,1154235.0,1423833.0,155.25,410.93,75.0,100.0
24126,1154299.0,1423970.0,161.83,416.34,75.0,100.0
24146,1154371.0,1424170.0,188.18,482.67,75.0,100.0
24166,1154358.0,1424180.0,194.29,513.6,75.0,100.0
24186,1154354.0,1424169.0,191.94,515.72,75.0,100.0
24206,1154380.0,1424182.0,195.7,509.96,75.0,100.0
24226,1153998.0,1423229.0,54.69,149.01,69.8,100.0
24246,1153953.0,1423109.0,-44.34,-106.55,66.2,100.0
24266,1153927.0,1423081.0,-109.97,-261.92,63.6,100.0
24286,1153939.0,1423012.0,-141.01,-370.71,61.8,100.0
24306,1153906.0,1422939.0,-167.71,-451.74,60.6,100.0
24326,1153599.0,1422194.0,-290.85,-758.7,59.7,100.0
24347,1153592.0,1422196.0,-357.89,-918.07,59.1,100.0
24367,1153597.0,1422221.0,-386.59,-980.16,58.7,100.0
24387,1153616.0,1422230.0,-387.53,-990.28,58.4,100.0
24408,1153671.0,1422390.0,-359.18,-915.48,58.2,100.0
24426,1153631.0,1422398.0,-349.19,-848.56,58.0,100.0
24447,1153668.0,1422392.0,-321.9,-792.58,57.9,100.0
24467,1153667.0,1422377.0,-299.2,-747.77,57.9,100.0
24487,1153654.0,1422391.0,-284.03,-699.66,57.8,100.0
24507,1153785.0,1422696.0,-221.23,-545.12,57.8,100.0
24527,1153783.0,1422702.0,-180.65,-441.27,57.7,100.0
24547,1153786.0,1422751.0,-151.95,-353.42,57.7,100.0
24566,1153748.0,1422692.0,-145.72,-315.9,57.7,100.0
24586,1153798.0,1422741.0,-120.67,-269.33,57.7,100.0
24606,1153831.0,1422843.0,-91.38,-199.23,57.7,100.0
24627,1153836.0,1422833.0,-70.57,-157.83,57.7,100.0
24646,1153810.0,1422833.0,-66.45,-130.31,57.7,100.0
24666,1153825.0,1422834.0,-57.16,-110.91,57.7,100.0
24686,1153951.0,1423125.0,-4.7,8.35,57.7,100.0
24706,1153951.0,1423139.0,25.76,82.21,57.7,100.0
24726,1153990.0,1423165.0,56.92,132.43,57.7,100.0
24746,1153960.0,1423189.0,62.69,167.12,57.7,100.0
24766,1153969.0,1423184.0,67.86,181.59,57.7,100.0
24786,1154120.0,1423551.0,124.08,319.08,57.7,100.0
24806,1154108.0,1423536.0,149.48,385.76,57.7,100.0
24826,1154116.0,1423549.0,163.6,420.22,57.7,100.0
24846,1154111.0,1423553.0,166.3,432.1,57.7,100.0
24868,1154183.0,1423719.0,190.06,489.38,57.7,100.0
24886,1154133.0,1423759.0,181.36,525.84,57.7,100.0
24906,1154202.0,1423764.0,197.23,536.66,57.7,100.0
24926,1154196.0,1423766.0,199.7,531.36,57.7,100.0
24946,1154220.0,1423792.0,205.35,525.6,57.7,100.0
24966,1154295.0,1423962.0,231.22,572.06,57.7,100.0
24986,1154296.0,1423966.0,241.22,587.23,57.7,100.0
25006,1154245.0,1423966.0,222.99,582.64,57.7,100.0
25026,1154278.0,1423999.0,219.34,578.64,57.7,100.0
25046,1154272.0,1423984.0,210.05,557.71,57.7,100.0
25066,1154358.0,1424176.0,231.1,602.64,57.7,100.0
25086,1154335.0,1424195.0,229.69,621.69,57.7,100.0
25106,1154371.0,1424175.0,236.75,611.34,57.7,100.0
25126,1154350.0,1424181.0,227.69,593.58,57.7,100.0
25146,1153915.0,1423028.0,59.51,151.25,60.4,100.0
25166,1153872.0,1422968.0,-54.69,-129.61,62.3,100.0
25187,1153893.0,1422932.0,-111.97,-302.02,63.6,100.0
25207,1153847.0,1422882.0,-159.13,-412.93,64.5,100.0
25227,1153832.0,1422786.0,-188.18,-502.43,65.2,100.0
25247,1153670.0,1422338.0,-259.45,-705.31,65.6,100.0
25267,1153630.0,1422392.0,-309.32,-786.81,65.9,100.0
25287,1153659.0,1422389.0,-320.61,-817.16,66.1,100.0
25307,1153669.0,1422386.0,-316.14,-817.04,66.3,100.0
25327,1153688.0,1422488.0,-299.44,-761.29,66.4,100.0
25347,1153709.0,1422496.0,-275.33,-708.72,66.5,100.0
25367,1153695.0,1422513.0,-260.27,-656.03,66.5,100.0
25387,1153689.0,1422511.0,-247.69,-611.34,66.6,100.0
25407,1153700.0,1422504.0,-230.75,-574.17,66.6,100.0
25427,1153762.0,1422645.0,-193.23,-488.32,66.6,100.0
25447,1153736.0,1422634.0,-176.65,-431.63,66.6,100.0
25467,1153742.0,1422622.0,-160.77,-393.41,66.6,100.0
25487,1153734.0,1422648.0,-150.78,-352.95,66.7,100.0
25507,1153743.0,1422620.0,-138.31,-331.66,66.7,100.0
25527,1153722.0,1422643.0,-135.6,-303.43,66.7,100.0
25547,1153744.0,1422628.0,-123.02,-285.56,66.7,100.0
25567,1153723.0,1422634.0,-120.43,-266.5,66.7,100.0
25587,1153757.0,1422646.0,-103.85,-245.1,66.7,100.0
25606,1153866.0,1423005.0,-52.45,-96.91,66.7,100.0
25626,1153877.0,1423028.0,-17.52,-0.59,66.7,100.0
25646,1153862.0,1423008.0,-2.35,47.75,66.7,100.0
25666,1153893.0,1423098.0,17.64,107.26,66.7,100.0
25686,1153898.0,1423059.0,30.7,125.02,66.7,100.0
25706,1154007.0,1423368.0,77.15,244.63,66.7,100.0
25726,1154009.0,1423387.0,102.91,315.08,66.7,100.0
25746,1154032.0,1423375.0,123.73,344.25,66.7,100.0
25766,1154042.0,1423354.0,136.66,345.66,66.7,100.0
25787,1154093.0,1423550.0,159.48,409.64,66.7,100.0
25806,1154089.0,1423570.0,167.59,444.57,66.7,100.0
25827,1154114.0,1423578.0,177.59,457.62,66.7,100.0
25846,1154084.0,1423589.0,168.42,458.68,66.7,100.0
25866,1154117.0,1423597.0,171.12,451.62,66.7,100.0
25886,1154194.0,1423774.0,196.88,501.61,66.7,100.0
25906,1154166.0,1423760.0,197.0,513.96,66.7,100.0
25927,1154177.0,1423785.0,196.64,518.43,66.7,100.0
25946,1154171.0,1423808.0,189.71,517.49,66.7,100.0
25968,1153883.0,1422938.0,76.92,189.35,68.1,100.0
25986,1153815.0,1422882.0,-14.82,-24.93,69.1,100.0
26007,1153801.0,1422817.0,-72.57,-171.71,69.8,100.0
26027,1153777.0,1422768.0,-113.02,-270.5,70.3,100.0
26047,1153756.0,1422691.0,-141.37,-349.3,70.6,100.0
26067,1153457.0,1421897.0,-263.09,-675.08,70.9,100.0
26087,1153466.0,1421922.0,-324.25,-838.91,71.0,100.0
26107,1153461.0,1421928.0,-353.89,-912.19,71.2,100.0
26127,1153429.0,1421943.0,-374.59,-928.3,71.2,100.0
26147,1153465.0,1421936.0,-365.06,-919.01,71.3,100.0
26167,1153499.0,1422021.0,-338.72,-861.73,71.3,100.0
26187,1153499.0,1422011.0,-315.9,-812.69,71.4,100.0
26207,1153483.0,1422053.0,-301.2,-750.47,71.4,100.0
26227,1153489.0,1422025.0,-283.79,-707.66,71.4,100.0
26247,1153569.0,1422269.0,-238.16,-578.17,71.4,100.0
26267,1153600.0,1422276.0,-195.0,-487.49,71.4,100.0
26287,1153570.0,1422282.0,-176.53,-421.87,71.4,100.0
26307,1153573.0,1422284.0,-160.77,-373.65,71.4,100.0
26327,1153577.0,1422265.0,-146.54,-344.13,71.4,100.0
26347,1153596.0,1422303.0,-128.08,-305.43,71.4,100.0
26367,1153587.0,1422301.0,-117.85,-276.74,71.4,100.0
26387,1153607.0,1422309.0,-101.97,-250.98,71.4,100.0
26431,1153604.0,1422324.0,-91.5,-224.99,71.4,100.0
26433,1153713.0,1422589.0,-43.75,-108.55,71.4,100.0
26446,1153735.0,1422602.0,-7.17,-34.11,71.4,100.0
26466,1153711.0,1422570.0,5.41,-1.88,71.4,100.0
26486,1153714.0,1422634.0,13.64,39.99,71.4,100.0
26506,1153732.0,1422638.0,24.58,64.8,71.4,100.0
26526,1153854.0,1422985.0,74.68,203.47,71.4,100.0
26547,1153882.0,1423008.0,111.97,287.44,71.4,100.0
26566,1153885.0,1423006.0,132.19,328.72,71.4,100.0
26587,1153847.0,1423010.0,127.02,346.48,71.4,100.0
26607,1153871.0,1423039.0,129.84,359.3,71.4,100.0
26627,1153980.0,1423248.0,168.07,434.45,71.4,100.0
26647,1153981.0,1423274.0,186.77,477.38,71.4,100.0
26667,1153964.0,1423276.0,187.12,492.08,71.4,100.0
26687,1153953.0,1423275.0,179.12,489.02,71.4,100.0
26707,1154055.0,1423458.0,207.35,542.42,71.4,100.0
26727,1154047.0,1423453.0,216.05,559.12,71.4,100.0
26747,1153998.0,1423485.0,198.29,567.71,71.4,100.0
26767,1154048.0,1423488.0,201.7,560.77,71.4,100.0
26787,1154048.0,1423483.0,199.11,542.18,71.4,100.0
26807,1154145.0,1423657.0,228.28,582.17,71.4,100.0
26827,1154124.0,1423652.0,232.28,590.17,71.4,100.0
26847,1154119.0,1423639.0,227.46,576.64,71.4,100.0
26867,1154126.0,1423615.0,222.05,546.89,71.4,100.0
26887,1153470.0,1421963.0,-24.35,-82.56,70.0,100.0
26907,1153448.0,1421896.0,-174.18,-468.56,69.0,100.0
26927,1153447.0,1421830.0,-257.1,-704.96,68.3,100.0
26947,1153439.0,1421825.0,-302.02,-827.39,67.8,100.0
26967,1153407.0,1421793.0,-332.72,-890.78,67.5,100.0
26987,1153423.0,1421834.0,-337.07,-892.19,67.2,100.0
27007,1153422.0,1421850.0,-332.37,-866.91,67.1,100.0
27027,1153427.0,1421858.0,-320.14,-829.51,66.9,100.0
27047,1153434.0,1421829.0,-303.2,-799.51,66.9,100.0
27067,1153431.0,1421862.0,-287.67,-752.0,66.8,100.0
27087,1153455.0,1421944.0,-263.33,-677.67,66.8,100.0
27107,1153458.0,1421941.0,-242.28,-620.28,66.7,100.0
27127,1153449.0,1421963.0,-227.81,-565.0,66.7,100.0
27147,1153443.0,1421958.0,-216.4,-521.95,66.7,100.0
27167,1153562.0,1422278.0,-161.6,-369.06,66.7,100.0
27187,1153554.0,1422250.0,-129.25,-282.38,66.7,100.0
27207,1153536.0,1422274.0,-114.08,-217.23,66.7,100.0
27227,1153557.0,1422269.0,-95.15,-176.42,66.7,100.0
27247,1153581.0,1422274.0,-73.27,-146.9,66.7,100.0
27267,1153635.0,1422431.0,-39.4,-69.51,66.7,100.0
27287,1153618.0,1422454.0,-25.05,-14.82,66.7,100.0
27306,1153640.0,1422467.0,-8.23,21.76,66.7,100.0
27326,1153619.0,1422435.0,-5.88,30.7,66.7,100.0
27347,1153770.0,1422809.0,50.34,171.01,66.7,100.0
27367,1153751.0,1422799.0,74.8,244.63,66.7,100.0
27386,1153773.0,1422801.0,95.15,282.26,66.7,100.0
27407,1153773.0,1422840.0,104.79,311.78,66.7,100.0
27427,1153783.0,1422815.0,111.61,312.49,66.7,100.0
27447,1153894.0,1423121.0,153.36,417.05,66.7,100.0
27467,1153918.0,1423125.0,182.65,469.27,66.7,100.0
27487,1153880.0,1423113.0,181.59,484.44,66.7,100.0
27507,1153803.0,1422903.0,148.89,405.87,66.7,100.0
27527,1153901.0,1423133.0,162.18,434.69,66.7,100.0
27547,1153952.0,1423288.0,184.65,497.84,66.7,100.0
27567,1153938.0,1423301.0,188.29,527.6,66.7,100.0
27587,1153956.0,1423300.0,192.65,532.42,66.7,100.0
27607,1153964.0,1423296.0,193.7,521.6,66.7,100.0
27627,1154049.0,1423468.0,220.75,565.94,66.7,100.0
27647,1154030.0,1423468.0,224.52,578.64,66.7,100.0
27667,1154021.0,1423487.0,218.17,579.58,66.7,100.0
27687,1154027.0,1423472.0,211.7,561.59,66.7,100.0
27707,1154050.0,1423474.0,211.58,539.13,66.7,100.0
27727,1154001.0,1423386.0,188.88,481.85,66.7,100.0
27747,1153994.0,1423335.0,168.89,419.28,66.7,100.0
27767,1153971.0,1423286.0,145.13,355.65,68.1,100.0
27787,1153943.0,1423256.0,117.96,299.91,69.1,100.0
27808,1153329.0,1421605.0,-123.37,-338.48,69.8,100.0
27827,1153262.0,1421615.0,-284.38,-696.02,70.3,100.0
27847,1153310.0,1421608.0,-353.42,-889.37,70.6,100.0
27867,1153333.0,1421586.0,-376.82,-988.75,70.9,100.0
27887,1153302.0,1421586.0,-393.17,-1023.56,71.0,100.0
27907,1153351.0,1421749.0,-375.76,-961.23,71.2,100.0
27927,1153360.0,1421735.0,-353.89,-908.3,71.2,100.0
27947,1153322.0,1421710.0,-346.95,-866.08,71.3,100.0
27967,1153354.0,1421682.0,-323.43,-832.21,71.3,100.0
27987,1153323.0,1421715.0,-313.67,-781.64,71.4,100.0
28007,1153350.0,1421722.0,-291.09,-732.01,71.4,100.0
28027,1153350.0,1421762.0,-271.44,-672.14,71.4,100.0
28047,1153357.0,1421773.0,-251.33,-618.16,71.4,100.0
28067,1153383.0,1421797.0,-224.52,-564.18,71.4,100.0
28087,1153349.0,1421716.0,-216.29,-549.48,71.4,100.0
28107,1153349.0,1421713.0,-206.52,-529.6,71.4,100.0
28127,1153333.0,1421724.0,-202.05,-501.96,71.4,100.0
28147,1153312.0,1421702.0,-202.41,-482.56,71.4,100.0
28167,1153328.0,1421687.0,-192.18,-465.74,71.4,100.0
28187,1153178.0,1421314.0,-236.28,-580.88,71.4,100.0
28207,1153160.0,1421330.0,-262.98,-628.39,71.4,100.0
28227,1153160.0,1421340.0,-272.39,-637.8,71.4,100.0
28247,1153134.0,1421313.0,-281.09,-638.51,71.4,100.0
28268,1153177.0,1421275.0,-264.04,-638.15,71.4,100.0
28287,1153139.0,1421335.0,-261.92,-601.58,71.4,100.0
28307,1153198.0,1421340.0,-233.34,-565.0,71.4,100.0
28327,1153169.0,1421350.0,-222.05,-527.25,71.4,100.0
28347,1153167.0,1421357.0,-211.11,-490.91,71.4,100.0
28367,1153125.0,1421193.0,-215.34,-518.19,71.4,100.0
28387,1153121.0,1421184.0,-214.29,-525.48,71.4,100.0
28407,1153123.0,1421185.0,-208.05,-517.37,71.4,100.0
28427,1153131.0,1421208.0,-196.76,-492.55,71.4,100.0
28447,1153110.0,1421157.0,-193.35,-485.38,71.4,100.0
28467,1152977.0,1420848.0,-235.34,-582.41,71.4,100.0
28487,1152959.0,1420785.0,-260.74,-648.03,71.4,100.0
28507,1152963.0,1420772.0,-268.03,-675.91,71.4,100.0
28527,1152930.0,1420784.0,-278.03,-672.14,71.4,100.0
28548,1152840.0,1420489.0,-310.14,-761.76,76.9,100.0
28567,1152839.0,1420470.0,-322.02,-803.04,80.7,100.0
28587,1152843.0,1420490.0,-320.02,-801.28,83.3,100.0
28607,1152794.0,1420426.0,-329.43,-805.28,94.3,100.0
28627,1152836.0,1420424.0,-312.02,-789.87,102.0,100.0
28647,1151976.0,1418461.0,-607.1,-1475.66,107.4,100.0
28667,1151965.0,1418366.0,-767.76,-1872.71,111.2,100.0
28687,1151959.0,1418338.0,-845.27,-2069.71,113.8,100.0
28707,1151927.0,1418272.0,-882.43,-2160.27,115.7,100.0
28728,1151675.0,1417729.0,-975.22,-2360.44,117.0,100.0
28748,1151649.0,1417737.0,-1016.04,-2419.48,117.9,100.0
28767,1151665.0,1417734.0,-1010.63,-2399.37,118.5,100.0
28787,1151668.0,1417748.0,-983.34,-2327.98,119.0,100.0
28807,1151642.0,1417706.0,-954.64,-2248.83,119.3,100.0
28827,1151497.0,1417363.0,-968.87,-2276.47,119.5,100.0
28848,1151497.0,1417380.0,-955.0,-2234.24,119.6,100.0
28867,1151501.0,1417361.0,-923.71,-2165.79,119.8,100.0
28887,1151496.0,1417401.0,-886.43,-2062.3,119.8,100.0
28907,1151495.0,1417373.0,-844.91,-1965.62,119.9,100.0
28962,1151521.0,1417427.0,-792.22,-1845.31,119.9,100.0
28963,1151523.0,1417432.0,-743.06,-1731.81,119.9,100.0
28967,1151526.0,1417434.0,-696.49,-1625.96,120.0,100.0
28987,1151517.0,1417416.0,-657.09,-1534.34,120.0,100.0
29007,1151536.0,1417475.0,-612.4,-1424.97,120.0,100.0
29027,1151523.0,1417453.0,-577.35,-1337.23,120.0,100.0
29055,1151549.0,1417510.0,-534.42,-1235.38,120.0,100.0
29067,1151549.0,1417507.0,-497.37,-1149.41,120.0,100.0
29087,1151576.0,1417479.0,-454.92,-1083.66,120.0,100.0
29107,1151766.0,1417963.0,-350.95,-845.15,120.0,100.0
29127,1151765.0,1417989.0,-283.32,-678.61,120.0,100.0
29147,1151787.0,1418005.0,-229.81,-561.12,120.0,100.0
29167,1151781.0,1418013.0,-195.7,-477.62,120.0,100.0
29188,1151906.0,1418302.0,-126.31,-313.55,120.0,100.0
29207,1151942.0,1418348.0,-70.21,-194.88,120.0,100.0
29227,1151931.0,1418344.0,-40.22,-123.26,120.0,100.0
29247,1151908.0,1418332.0,-30.34,-83.39,120.0,100.0
29267,1151899.0,1418334.0,-27.29,-57.75,120.0,100.0
29287,1152006.0,1418545.0,14.11,35.05,120.0,100.0
29307,1152010.0,1418526.0,39.16,80.8,120.0,100.0
29327,1152031.0,1418575.0,60.22,123.26,120.0,100.0
29347,1152026.0,1418585.0,69.27,148.66,120.0,100.0
29367,1152043.0,1418582.0,79.03,158.77,120.0,100.0
29387,1152142.0,1418841.0,118.9,254.98,120.0,100.0
29407,1152128.0,1418862.0,134.08,312.49,120.0,100.0
29427,1152142.0,1418873.0,144.9,342.6,120.0,100.0
29447,1152180.0,1418884.0,161.6,356.12,120.0,100.0
29467,1152192.0,1418942.0,171.95,376.82,120.0,100.0
29487,1152142.0,1418897.0,155.95,364.0,120.0,100.0
29507,1152144.0,1418862.0,143.84,335.54,120.0,100.0
29527,1152120.0,1418855.0,124.9,308.84,120.0,100.0
29547,1152115.0,1418821.0,109.26,274.03,120.0,100.0
29567,1151479.0,1417243.0,-133.25,-325.31,97.8,100.0
29587,1151457.0,1417222.0,-278.27,-671.67,82.3,100.0
29607,1151464.0,1417200.0,-353.18,-864.44,71.5,100.0
29627,1151458.0,1417186.0,-390.47,-961.23,63.9,100.0
29647,1151490.0,1417329.0,-391.64,-943.35,58.6,100.0
29667,1151499.0,1417297.0,-380.0,-923.12,54.8,100.0
29687,1151520.0,1417300.0,-357.06,-889.25,52.2,100.0
29707,1151482.0,1417313.0,-349.54,-844.79,50.4,100.0
29727,1151491.0,1417298.0,-333.9,-805.16,49.1,100.0
29747,1151537.0,1417416.0,-300.49,-721.07,48.2,100.0
29767,1151534.0,1417430.0,-275.44,-650.97,47.6,100.0
29787,1151555.0,1417448.0,-247.1,-589.11,47.2,100.0
29807,1151558.0,1417471.0,-223.93,-531.6,46.9,100.0
29828,1151717.0,1417880.0,-147.72,-337.78,46.7,100.0
29847,1151734.0,1417881.0,-94.21,-217.7,46.5,100.0
29867,1151732.0,1417876.0,-61.86,-145.13,46.4,100.0
29887,1151740.0,1417873.0,-38.81,-100.91,46.3,100.0
29907,1151741.0,1417895.0,-24.23,-65.04,46.3,100.0
29927,1151857.0,1418153.0,26.82,50.81,46.2,100.0
29947,1151849.0,1418160.0,52.92,119.02,46.2,100.0
29967,1151876.0,1418162.0,76.45,156.42,46.2,100.0
29987,1151820.0,1418173.0,68.1,178.53,46.2,100.0
30007,1151882.0,1418189.0,84.21,193.0,46.2,100.0
30027,1152077.0,1418683.0,162.42,376.35,46.2,100.0
30047,1152086.0,1418683.0,207.11,473.73,46.2,100.0
30067,1152103.0,1418675.0,234.4,516.19,46.2,100.0
30087,1152068.0,1418696.0,232.05,536.66,46.2,100.0
30107,1152190.0,1418897.0,269.68,609.22,46.2,100.0
30127,1152184.0,1418934.0,283.09,650.62,46.2,100.0
30147,1152180.0,1418931.0,282.97,658.74,46.2,100.0
30167,1152197.0,1418918.0,282.62,643.68,46.2,100.0
30187,1152197.0,1418950.0,276.03,631.8,46.2,100.0
30207,1152307.0,1419167.0,305.79,689.31,46.2,100.0
30227,1152303.0,1419150.0,314.49,700.72,46.2,100.0
30247,1152268.0,1419155.0,299.67,693.2,46.2,100.0
30267,1152323.0,1419205.0,304.26,691.2,46.2,100.0
30288,1152450.0,1419517.0,346.13,787.52,46.2,100.0
30307,1152467.0,1419526.0,368.59,828.45,46.2,100.0
30327,1152457.0,1419496.0,369.53,822.33,46.2,100.0
30347,1152460.0,1419510.0,362.71,805.16,46.2,100.0
30367,1152462.0,1419509.0,351.18,776.46,46.2,100.0
30387,1152290.0,1419039.0,274.03,571.59,46.2,100.0
30407,1152251.0,1418979.0,209.11,418.34,53.8,100.0
30427,1152225.0,1418940.0,157.36,306.14,59.1,100.0
30447,1152187.0,1418898.0,110.08,218.99,62.8,100.0
30468,1152179.0,1418806.0,77.39,130.31,65.4,100.0
30487,1151765.0,1417832.0,-93.62,-277.56,67.2,100.0
30507,1151779.0,1417835.0,-185.24,-505.72,68.5,100.0
30527,1151776.0,1417820.0,-234.99,-631.57,69.4,100.0
30547,1151785.0,1417847.0,-255.1,-680.14,70.0,100.0
30567,1151811.0,1417933.0,-251.57,-661.44,70.4,100.0
30587,1151824.0,1417926.0,-239.1,-638.15,70.7,100.0
30607,1151784.0,1417917.0,-240.98,-613.22,70.9,100.0
30627,1151789.0,1417913.0,-234.75,-586.41,71.1,100.0
30647,1151766.0,1417918.0,-234.04,-555.59,71.2,100.0
30667,1151858.0,1418047.0,-194.88,-478.44,71.3,100.0
30687,1151858.0,1418073.0,-167.83,-413.52,71.3,100.0
30707,1151859.0,1418080.0,-148.07,-364.0,71.3,100.0
30727,1151870.0,1418107.0,-129.25,-317.2,71.4,100.0
30748,1151862.0,1418088.0,-118.32,-289.91,71.4,100.0
30767,1151841.0,1418067.0,-117.02,-275.09,71.4,100.0
30787,1151873.0,1418061.0,-101.97,-262.51,71.4,100.0
30807,1151846.0,1418050.0,-100.67,-253.22,71.4,100.0
30827,1151870.0,1418064.0,-88.91,-236.98,71.4,100.0
30847,1151988.0,1418335.0,-37.28,-123.84,71.4,100.0
30868,1151985.0,1418328.0,-7.64,-58.22,71.4,100.0
30887,1151983.0,1418365.0,8.94,-5.53,71.4,100.0
30907,1151884.0,1418107.0,-17.64,-68.57,71.4,100.0
30927,1151992.0,1418374.0,6.7,-6.59,71.4,100.0
30947,1152165.0,1418773.0,83.39,174.18,71.4,100.0
30968,1152219.0,1418793.0,145.37,281.91,71.4,100.0
30987,1152180.0,1418815.0,163.71,345.77,71.4,100.0
31007,1152176.0,1418796.0,169.24,367.89,71.4,100.0
31027,1152263.0,1419031.0,200.06,457.62,71.4,100.0
31047,1152291.0,1419006.0,223.46,489.96,71.4,100.0
31067,1152242.0,1419021.0,214.17,502.9,71.4,100.0
31087,1152264.0,1419030.0,211.82,502.2,71.4,100.0
31107,1152300.0,1419060.0,218.76,501.26,71.4,100.0
31127,1152361.0,1419205.0,239.93,541.95,71.4,100.0
31147,1152353.0,1419211.0,243.69,555.24,71.4,100.0
31168,1152348.0,1419216.0,238.63,552.06,71.4,100.0
31187,1152368.0,1419224.0,237.46,540.65,71.4,100.0
31208,1152438.0,1419305.0,256.86,551.0,71.4,100.0
31227,1152406.0,1419313.0,250.51,547.36,71.4,100.0
31247,1152391.0,1419318.0,235.69,534.54,71.4,100.0
31267,1152400.0,1419300.0,225.11,508.43,71.4,100.0
31287,1152410.0,1419319.0,217.46,488.55,71.4,100.0
31307,1151915.0,1418101.0,28.34,23.76,71.4,100.0
31327,1151880.0,1418028.0,-94.21,-271.92,71.4,100.0
31347,1151871.0,1417987.0,-166.18,-451.39,71.4,100.0
31368,1151860.0,1417882.0,-207.94,-582.88,71.4,100.0
31387,1151814.0,1417881.0,-244.04,-645.92,71.4,100.0
31407,1151705.0,1417593.0,-298.85,-772.11,71.4,100.0
31427,1151695.0,1417608.0,-327.43,-822.1,71.4,100.0
31447,1151717.0,1417676.0,-328.37,-807.51,71.4,100.0
31467,1151700.0,1417640.0,-327.66,-793.75,71.4,100.0
31487,1151687.0,1417556.0,-324.49,-798.1,71.4,100.0
31507,1151659.0,1417587.0,-325.43,-771.29,71.4,100.0
31527,1151669.0,1417609.0,-314.84,-730.12,71.4,100.0
31547,1151684.0,1417604.0,-296.14,-691.55,71.4,100.0
31567,1151677.0,1417593.0,-281.09,-657.44,71.4,100.0
31587,1151760.0,1417821.0,-235.93,-539.95,71.4,100.0
31607,1151788.0,1417812.0,-194.17,-463.03,71.4,100.0
31627,1151773.0,1417841.0,-171.01,-397.52,71.4,100.0
31647,1151787.0,1417834.0,-148.78,-353.07,71.4,100.0
31670,1151832.0,1417936.0,-116.08,-282.38,71.4,100.0
31712,1151816.0,1417989.0,-100.44,-215.81,71.4,100.0
31714,1151835.0,1418007.0,-82.21,-165.95,71.4,100.0
31729,1151883.0,1418031.0,-52.45,-124.67,71.4,100.0
31747,1151883.0,1418016.0,-34.11,-103.26,71.4,100.0
31767,1152032.0,1418399.0,31.4,50.45,71.4,100.0
31787,1152047.0,1418444.0,73.98,154.42,71.4,100.0
31807,1152063.0,1418440.0,102.79,209.46,71.4,100.0
31827,1152037.0,1418429.0,107.61,232.63,71.4,100.0
31847,1152042.0,1418445.0,109.73,246.39,71.4,100.0
31867,1152146.0,1418689.0,146.19,337.42,71.4,100.0
31887,1152163.0,1418735.0,170.18,398.93,71.4,100.0
31907,1152163.0,1418724.0,180.06,421.4,71.4,100.0
31927,1152183.0,1418729.0,188.88,426.57,71.4,100.0
31947,1152300.0,1418988.0,232.16,513.96,71.4,100.0
31967,1152292.0,1419001.0,248.98,557.36,71.4,100.0
31987,1152287.0,1419016.0,251.22,575.23,71.4,100.0
32007,1152334.0,1419024.0,263.92,575.35,71.4,100.0
32027,1152293.0,1419021.0,250.27,561.24,71.4,100.0
32047,1152345.0,1419168.0,255.57,593.58,71.4,100.0
32067,1152382.0,1419148.0,266.27,591.58,71.4,100.0
32087,1152355.0,1419161.0,256.51,581.58,71.4,100.0
32107,1152379.0,1419166.0,253.8,564.41,71.4,100.0
32128,1151933.0,1418034.0,84.44,130.55,70.0,100.0
32147,1151877.0,1418034.0,-35.52,-123.14,69.0,100.0
32167,1151890.0,1417968.0,-99.38,-290.85,68.3,100.0
32187,1151863.0,1417936.0,-143.84,-392.7,67.8,100.0
32207,1151837.0,1417864.0,-175.71,-468.79,67.5,100.0
32227,1151640.0,1417456.0,-261.68,-650.15,67.2,100.0
32247,1151648.0,1417466.0,-302.38,-736.48,67.1,100.0
32267,1151635.0,1417475.0,-323.78,-766.35,66.9,100.0
32288,1151662.0,1417489.0,-318.96,-761.06,66.9,100.0
32307,1151652.0,1417476.0,-312.49,-745.3,66.8,100.0
32327,1151681.0,1417491.0,-291.09,-713.78,66.8,100.0
32347,1151687.0,1417453.0,-269.92,-692.96,66.7,100.0
32367,1151663.0,1417493.0,-260.27,-650.74,66.7,100.0
32387,1151670.0,1417506.0,-246.16,-606.75,66.7,100.0
32407,1151677.0,1417520.0,-229.81,-562.41,66.7,100.0
32427,1151703.0,1417522.0,-205.7,-523.13,66.7,100.0
32447,1151699.0,1417527.0,-188.53,-486.79,66.7,100.0
32467,1151697.0,1417491.0,-175.0,-467.74,66.7,100.0
32487,1151664.0,1417479.0,-175.24,-450.45,66.7,100.0
32507,1151547.0,1417223.0,-213.82,-523.13,66.7,100.0
32527,1151546.0,1417215.0,-231.69,-556.06,66.7,100.0
32547,1151558.0,1417212.0,-232.4,-563.47,66.7,100.0
32567,1151531.0,1417217.0,-237.22,-553.12,66.7,100.0
32588,1151651.0,1417457.0,-191.12,-447.39,66.7,100.0
32607,1151651.0,1417492.0,-160.07,-363.3,66.7,100.0
32627,1151653.0,1417486.0,-137.84,-308.61,66.7,100.0
32647,1151652.0,1417512.0,-122.2,-260.62,66.7,100.0
32667,1151648.0,1417502.0,-111.85,-230.52,66.7,100.0
32687,1151897.0,1418068.0,-12.94,-2.35,66.7,100.0
32707,1151912.0,1418112.0,50.1,145.48,66.7,100.0
32727,1151886.0,1418110.0,75.86,226.87,66.7,100.0
32747,1151917.0,1418157.0,100.32,285.79,66.7,100.0
32767,1151926.0,1418157.0,115.49,313.31,66.7,100.0
32788,1152026.0,1418399.0,157.83,409.99,66.7,100.0
32807,1152052.0,1418409.0,188.18,460.09,66.7,100.0
32827,1152026.0,1418408.0,191.94,478.2,66.7,100.0
32847,1152024.0,1418434.0,189.12,487.26,66.7,100.0
32867,1152131.0,1418671.0,221.93,567.35,66.7,100.0
32887,1152147.0,1418685.0,241.57,605.81,66.7,100.0
32907,1152135.0,1418731.0,243.22,630.86,66.7,100.0
32927,1152145.0,1418707.0,242.16,622.28,66.7,100.0
32947,1152146.0,1418733.0,236.4,612.51,66.7,100.0
32967,1152187.0,1418748.0,242.51,598.4,66.7,100.0
32987,1152182.0,1418754.0,238.75,578.64,66.7,100.0
33007,1152169.0,1418705.0,226.4,536.3,66.7,100.0
33027,1152111.0,1418626.0,193.0,470.91,66.7,100.0
33048,1151360.0,1416799.0,-103.26,-240.98,67.6,100.0
33067,1151364.0,1416853.0,-270.74,-627.22,68.2,100.0
33088,1151348.0,1416797.0,-367.06,-856.44,68.7,100.0
33107,1151336.0,1416774.0,-418.69,-977.69,69.0,100.0
33127,1151328.0,1416775.0,-441.98,-1025.09,69.2,100.0
33147,1151426.0,1416946.0,-409.75,-966.99,69.4,100.0
33167,1151427.0,1416964.0,-381.41,-904.89,69.5,100.0
33188,1151408.0,1416945.0,-363.18,-855.26,69.6,100.0
33207,1151415.0,1416958.0,-341.78,-802.34,69.6,100.0
33227,1151414.0,1416944.0,-322.02,-758.59,69.7,100.0
33247,1151467.0,1417026.0,-284.03,-686.26,69.7,100.0
33267,1151440.0,1417032.0,-265.33,-626.51,69.7,100.0
33287,1151476.0,1417018.0,-235.46,-582.88,69.7,100.0
33307,1151472.0,1417012.0,-214.29,-546.54,69.7,100.0
33327,1151336.0,1416694.0,-246.51,-628.51,69.8,100.0
33348,1151335.0,1416681.0,-259.92,-666.14,69.8,100.0
33367,1151312.0,1416639.0,-270.03,-688.02,69.8,100.0
33388,1151300.0,1416669.0,-274.03,-674.14,69.8,100.0
33407,1151302.0,1416606.0,-269.33,-673.55,69.8,100.0
33427,1151103.0,1416191.0,-332.84,-808.45,69.8,100.0
33447,1151094.0,1416185.0,-365.18,-870.2,69.8,100.0
33467,1151083.0,1416183.0,-379.41,-886.78,69.8,100.0
33488,1151110.0,1416189.0,-369.3,-873.84,69.8,100.0
33507,1151152.0,1416377.0,-339.66,-778.23,69.8,100.0
33527,1151184.0,1416365.0,-303.2,-709.66,69.8,100.0
33547,1151200.0,1416391.0,-269.45,-644.39,69.8,100.0
33567,1151186.0,1416406.0,-248.98,-586.52,69.8,100.0
33588,1151167.0,1416390.0,-238.28,-545.48,69.8,100.0
33607,1151070.0,1416166.0,-261.92,-590.64,69.8,100.0
33627,1151063.0,1416083.0,-272.03,-633.33,69.8,100.0
33647,1150997.0,1416007.0,-295.67,-671.32,69.8,100.0
33667,1150987.0,1415935.0,-306.14,-704.02,69.8,100.0
33690,1147863.0,1409978.0,-1439.43,-2869.57,72.2,100.0
33708,1147655.0,1409760.0,-2136.98,-4134.59,73.9,100.0
33728,1147459.0,1409464.0,-2562.49,-4878.83,75.1,99.9
33748,1147206.0,1409140.0,-2841.7,-5315.16,76.0,99.8
33768,1146872.0,1408727.0,-3059.51,-5595.9,79.6,99.7
